Tong,Dang Khoa,1488,10/14/2019,2:37:41 PM,10/14/2019,3:03:26 PM
1860
1832
1824
1850
1841
1856
1862
1860
1870
1882
1866
1855
1885
1883
1884
1890
1898
1888
1899
1893
1890
1890
1902
1906
1894
1907
1906
1908
1925
1911
1914
1932
1947
1956
1976
1994
1996
2020
2037
2021
2047
2047
2039
2040
2028
2023
2003
1996
1998
1978
1985
1981
1981
1981
1977
1982
1975
1964
1975
1978
1980
1985
1980
1990
1986
1980
1988
1978
1984
1992
1976
1977
1990
1995
1999
2001
2006
1994
2008
2006
1998
2014
2017
2009
2024
2017
2022
2020
2018
2015
2020
2034
2030
2028
2023
2024
2031
2023
2033
2012
2008
2018
2012
2011
2035
2035
2042
2058
2076
2049
2070
2071
2043
2052
2024
2023
2040
2060
2055
2058
2062
2053
2037
2033
2029
2061
2044
1978
1929
2094
2618
3363
3958
4095
4037
3469
2982
2405
2081
1949
1886
1872
1879
1872
1846
1865
1888
1895
1891
1907
1902
1906
1898
1903
1901
1913
1927
1922
1933
1931
1927
1940
1933
1933
1935
1941
1931
1940
1949
1947
1968
1979
1983
1983
2001
2012
2033
2043
2052
2068
2079
2091
2103
2098
2082
2077
2065
2062
2054
2032
2019
2013
2012
2013
2002
2008
2001
2020
2006
2008
2006
2009
2014
2008
2010
2007
2003
2014
2013
1998
2015
2013
2018
2008
2023
2024
2029
2041
2026
2028
2033
2051
2038
2050
2041
2038
2048
2055
2051
2055
2042
2048
2054
2048
2050
2052
2058
2075
2062
2090
2069
2072
2107
2096
2104
2106
2065
2072
2068
2065
2110
2104
2113
2093
2087
2104
2097
2084
2069
2079
2045
1998
2016
2328
2984
3616
4064
4095
3589
3152
2691
2273
2043
1938
1916
1928
1946
1901
1929
1925
1969
1989
1949
1988
2000
1991
1974
1988
2006
2007
2006
2026
2011
2011
2040
2026
2030
2035
2028
2031
2042
2080
2063
2085
2074
2071
2095
2100
2120
2151
2151
2175
2169
2159
2178
2182
2189
2164
2152
2142
2123
2122
2087
2084
2069
2069
2073
2063
2062
2065
2067
2068
2064
2058
2053
2069
2067
2069
2071
2063
2060
2045
2079
2060
2078
2104
2037
2066
2059
2065
2076
2090
2076
2075
2076
2075
2076
2087
2093
2085
2083
2076
2076
2085
2085
2070
2090
2102
2108
2120
2115
2129
2111
2107
2094
2070
2077
2100
2101
2114
2116
2102
2090
2104
2088
2069
2089
2111
2057
2003
2008
2301
2978
3653
4095
4095
3684
3198
2738
2268
2050
1934
1906
1924
1934
1908
1882
1903
1931
1945
1935
1954
1952
1941
1948
1955
1971
1961
1971
1976
1968
1976
1977
1973
1974
1993
1983
1991
1981
1991
1992
2003
2020
2022
2030
2043
2048
2063
2084
2105
2122
2135
2130
2131
2113
2102
2093
2076
2062
2044
2036
2031
2032
2021
2014
2009
2002
2005
2006
2010
2000
2015
2000
2004
2017
2006
2001
2009
1995
1997
2011
2017
2011
2009
2009
2012
2021
2022
2018
2020
2016
2030
2024
2038
2031
2025
2019
2023
2016
2027
2023
2025
2023
2009
2015
2021
2009
2030
2050
2051
2066
2064
2060
2067
2045
2039
2035
2017
2050
2053
2044
2060
2037
2056
2061
2047
2019
2026
2052
2012
1941
1927
2139
2748
3525
4056
4095
3970
3383
2866
2305
2016
1893
1845
1859
1862
1840
1813
1824
1862
1857
1870
1879
1866
1869
1870
1870
1890
1883
1889
1887
1891
1893
1900
1901
1897
1896
1909
1893
1912
1901
1909
1923
1919
1933
1930
1959
1969
1987
1985
2004
2021
2048
2049
2038
2040
2016
2024
2002
1995
1978
1965
1966
1965
1945
1961
1962
1955
1954
1944
1956
1950
1952
1946
1936
1949
1955
1960
1951
1944
1957
1948
1950
1956
1958
1965
1963
1968
1969
1963
1979
1993
1985
1981
1979
1986
1977
1998
1992
1986
1977
2000
2003
2002
2007
1993
1999
2013
2007
1999
2013
1995
2006
1984
1985
1987
1987
2037
2028
2048
2045
2040
2045
2045
2046
2016
2015
2018
2029
2045
2052
2047
2027
2044
2024
2007
2017
2044
2017
1942
1917
2042
2562
3350
3936
4095
4089
3501
2985
2403
2065
1912
1848
1858
1853
1840
1825
1810
1839
1858
1859
1872
1875
1877
1872
1876
1888
1887
1883
1898
1894
1909
1904
1904
1909
1911
1920
1926
1934
1925
1935
1953
1958
1961
1965
2000
2004
2024
2059
2050
2076
2098
2107
2103
2121
2115
2098
2094
2081
2070
2066
2053
2049
2049
2030
2034
2030
2040
2029
2028
2043
2018
2038
2026
2024
2029
2032
2028
2021
2016
2018
2011
2019
2018
2007
2024
2021
2008
2023
2022
2024
2019
2036
2027
2036
2048
2036
2029
2039
2047
2045
2049
2055
2057
2052
2054
2048
2045
2048
2048
2051
2057
2067
2060
2094
2097
2104
2122
2132
2117
2110
2093
2081
2085
2120
2102
2120
2118
2090
2112
2113
2106
2073
2098
2121
2049
2007
2027
2350
3066
3735
4095
4095
3693
3229
2725
2263
2064
1948
1923
1951
1945
1906
1897
1928
1944
1952
1956
1961
1976
1976
1964
1974
1981
2000
1988
2011
2008
1989
2012
2013
2009
2030
2015
2020
2018
2027
2035
2048
2057
2051
2071
2078
2090
2111
2125
2145
2158
2181
2180
2182
2162
2157
2150
2137
2140
2128
2107
2109
2094
2089
2088
2092
2077
2078
2074
2083
2086
2080
2062
2069
2069
2068
2087
2070
2071
2076
2070
2074
2066
2075
2069
2087
2090
2094
2079
2083
2075
2074
2089
2083
2087
2091
2084
2095
2089
2090
2089
2096
2095
2102
2083
2092
2090
2096
2102
2101
2086
2079
2094
2095
2090
2084
2076
2071
2080
2094
2104
2117
2125
2125
2129
2131
2129
2123
2103
2101
2090
2102
2112
2122
2113
2110
2109
2103
2088
2063
2095
2099
2026
1970
2011
2395
3113
3802
4095
4095
3744
3233
2664
2197
2014
1906
1895
1907
1886
1848
1865
1878
1913
1916
1894
1904
1903
1913
1914
1924
1909
1910
1922
1925
1929
1944
1927
1949
1934
1929
1950
1938
1948
1956
1942
1954
1965
1966
1976
1993
2010
2026
2036
2063
2065
2084
2095
2084
2080
2084
2061
2064
2039
2032
2031
2026
2012
1988
2015
1992
2013
2003
1973
1997
1988
1991
1989
1995
1990
1997
1992
1988
1996
1999
1966
2000
1971
1995
1998
1995
1988
1994
2011
2015
2002
2003
2013
2010
2021
2005
2017
2012
2016
2031
2016
2021
2022
2028
2028
2028
2018
2021
2029
2033
2035
2029
2029
2029
2045
2037
2037
2036
2032
2048
2037
2044
2040
2033
2019
2033
2025
2025
2049
2066
2067
2067
2075
2078
2066
2078
2058
2030
2044
2048
2066
2066
2058
2047
2062
2057
2053
2035
2055
2067
1980
1939
1968
2324
3040
3734
4095
4095
3760
3216
2647
2179
1971
1874
1862
1859
1859
1826
1828
1844
1862
1869
1873
1883
1864
1881
1884
1883
1893
1880
1886
1890
1892
1896
1900
1901
1905
1907
1898
1899
1894
1906
1905
1917
1923
1924
1939
1952
1950
1961
1985
1993
2025
2037
2039
2050
2051
2047
2040
2038
2022
2011
2000
2000
1980
1987
1984
1976
1964
1972
1973
1964
1983
1963
1974
1973
1979
1967
1965
1975
1959
1978
1976
1980
1984
1997
1983
1985
1984
1973
1985
1992
2011
2000
2016
2016
2009
2012
2014
2020
2011
2027
2022
2030
2037
2032
2028
2027
2024
2031
2038
2020
2023
2028
2030
2042
2039
2022
2032
2040
2034
2028
2025
2039
2033
2052
2057
2058
2072
2085
2088
2070
2062
2047
2052
2058
2065
2076
2086
2077
2079
2067
2059
2056
2049
2052
2048
1985
1915
2012
2429
3144
3759
4095
4047
3509
3079
2544
2144
1978
1863
1875
1895
1892
1857
1855
1872
1898
1902
1900
1905
1913
1914
1903
1930
1928
1928
1933
1939
1920
1943
1953
1950
1963
1945
1968
1971
1974
1973
1988
1997
2005
2006
2009
2015
2030
2060
2056
2077
2090
2113
2103
2123
2123
2096
2083
2075
2048
2041
2034
2021
2013
2023
1997
1999
1996
1985
1997
2001
2005
1998
1994
1994
1991
2003
1994
2008
1993
1986
2017
2006
2005
2001
2003
2008
2022
2027
1995
2017
2012
2023
2022
2018
2007
2009
2017
2020
2023
2021
2013
2015
2009
2013
2022
2016
2030
2039
2049
2060
2066
2087
2069
2078
2052
2036
2021
2039
2046
2056
2075
2063
2058
2058
2059
2052
2030
2047
2045
1993
1942
1991
2413
3130
3737
4095
3994
3432
3005
2563
2146
1983
1885
1860
1882
1905
1871
1870
1882
1921
1901
1908
1925
1931
1933
1922
1930
1944
1961
1972
1959
1957
1948
1963
1971
1972
1987
1999
1983
2008
1997
2010
2018
2037
2036
2045
2082
2081
2088
2108
2141
2139
2146
2137
2120
2119
2116
2096
2057
2055
2047
2038
2022
2022
2001
2000
2019
2012
2022
2019
1993
2005
1995
2002
2009
2008
1991
2006
1999
2016
2014
2014
2027
2012
2026
2018
2019
2034
2028
2016
2015
2027
2026
2034
2041
2039
2043
2048
2044
2046
2039
2048
2038
2036
2035
2029
2044
2036
2043
2044
2045
2063
2073
2086
2078
2093
2076
2081
2071
2067
2064
2056
2090
2088
2092
2087
2070
2081
2075
2059
2042
2073
2030
1990
1938
2117
2695
3440
3998
4095
3944
3361
2903
2379
2048
1929
1877
1866
1880
1871
1842
1850
1894
1893
1889
1902
1897
1904
1895
1916
1920
1922
1927
1940
1940
1942
1958
1951
1957
1960
1954
1962
1968
1974
1966
1972
1988
1993
1995
2017
2015
2042
2063
2092
2093
2104
2109
2103
2101
2085
2084
2060
2033
2037
2021
2013
2024
2009
1993
1991
2001
1994
1986
2004
1969
1981
1996
1990
1987
1990
1996
1993
1993
1992
1981
1985
1994
1993
1985
1992
1996
1997
2008
2022
2006
1996
1994
1996
1993
2014
2006
2007
2010
2009
2021
2026
2017
2015
2015
2006
2005
1991
2001
2010
2027
2052
2040
2052
2048
2044
2048
2048
2019
2014
2016
2021
2039
2045
2036
2031
2022
2033
2027
1992
2060
2028
1951
1920
1945
2247
2948
3682
4095
4095
3836
3253
2676
2176
1959
1848
1823
1831
1830
1807
1825
1814
1832
1839
1840
1854
1849
1851
1835
1857
1855
1862
1875
1851
1861
1880
1877
1873
1881
1873
1876
1885
1885
1885
1888
1901
1907
1922
1924
1943
1959
1983
1983
2002
2018
2022
2040
2034
2017
2007
1992
1985
1968
1958
1964
1947
1948
1943
1946
1931
1936
1949
1925
1935
1943
1926
1949
1941
1937
1951
1924
1944
1941
1943
1945
1941
1954
1951
1963
1964
1955
1961
1965
1971
1970
1972
1968
1967
1983
1977
1970
1972
1969
1981
1972
1992
1992
1984
2001
1976
1977
1985
1984
1987
1990
1991
1991
1969
1971
1975
1971
1989
2014
2002
2015
2027
2030
2030
2022
2021
1999
2004
2000
2013
2020
2024
2029
2011
2032
2018
2001
1994
2030
2000
1922
1879
1968
2397
3158
3801
4095
4095
3604
3054
2476
2070
1903
1827
1827
1817
1812
1799
1796
1820
1825
1826
1840
1835
1840
1826
1835
1832
1841
1841
1855
1857
1871
1861
1868
1868
1868
1872
1878
1881
1885
1871
1896
1898
1883
1925
1924
1936
1937
1988
1986
2009
2045
2010
2030
2029
2040
2018
2018
1996
1987
1981
1974
1956
1947
1947
1944
1948
1941
1942
1941
1943
1943
1948
1953
1951
1944
1955
1956
1946
1968
1932
1953
1952
1953
1957
1955
1960
1962
1968
1965
1965
1949
1984
1976
1985
1985
1961
1976
1978
2008
1976
1993
1986
1999
1991
2008
1991
1979
2004
1994
1990
1975
1985
1989
2015
2031
2024
2036
2034
2045
2031
2036
2009
2010
2002
2013
2021
2024
2039
2030
2035
2043
2006
1998
1993
2009
1989
1929
1940
2213
2853
3533
3972
4085
3656
3162
2717
2202
1980
1866
1832
1857
1847
1836
1811
1832
1876
1874
1877
1908
1868
1866
1864
1866
1885
1897
1900
1910
1899
1917
1906
1910
1937
1935
1930
1929
1944
1934
1943
1980
1959
1986
2010
1989
2017
2036
2054
2076
2083
2099
2076
2089
2069
2072
2039
2022
2009
1992
1993
1978
1962
1949
1966
1956
1965
1961
1928
1939
1941
1955
1957
1951
1933
1948
1956
1964
1952
1956
1946
1944
1975
1969
1961
1971
1969
1962
1976
1972
1965
1982
1989
1986
1968
1972
1972
1983
1979
1979
1962
1975
1982
1990
1995
2004
2026
2025
2036
2026
2019
2016
1995
1992
1985
2017
2026
2029
2028
2009
2010
2009
2015
1984
2000
2012
1944
1917
1991
2434
3138
3744
4067
3895
3335
2913
2459
2082
1919
1831
1812
1838
1847
1801
1805
1838
1853
1862
1862
1883
1880
1885
1868
1878
1897
1903
1917
1907
1900
1923
1918
1929
1942
1936
1944
1953
1953
1957
1956
1968
1985
1998
2015
2027
2034
2063
2063
2084
2090
2093
2094
2075
2066
2031
2039
2016
1979
1994
1950
1956
1964
1964
1965
1959
1938
1949
1925
1947
1962
1952
1954
1947
1958
1955
1960
1962
1964
1952
1974
1959
1951
1974
1963
1967
1968
1968
1956
1967
1975
1976
1979
1982
1977
1978
1976
1981
1984
1983
1982
1976
1969
1971
1974
1974
1980
2012
2009
2019
2011
2027
2021
2017
2011
1989
1987
1993
2016
2027
2015
2024
2017
2007
2020
1991
1980
2023
1974
1924
1883
2036
2600
3331
3902
4095
3918
3352
2904
2357
2015
1885
1810
1820
1849
1818
1793
1819
1833
1854
1835
1851
1844
1864
1865
1862
1879
1878
1890
1901
1901
1909
1903
1908
1901
1910
1922
1931
1927
1935
1940
1944
1958
1960
1975
1986
2000
2026
2042
2069
2081
2079
2087
2078
2078
2065
2043
2026
2011
1997
1986
1978
2000
1958
1960
1965
1948
1970
1960
1969
1937
1950
1959
1955
1944
1961
1949
1944
1945
1952
1952
1961
1967
1956
1969
1978
1969
1975
1973
1965
1990
1980
1971
1970
1971
1973
1983
1985
1967
1972
1985
1991
1962
2005
1993
1986
2005
1976
1982
1968
1981
1961
1974
1996
2015
2012
2017
2024
2031
2036
2027
2027
1999
2000
2005
2002
2020
2027
2022
2016
2015
2005
1994
1986
2032
1983
1925
1877
1938
2353
3113
3795
4095
4095
3679
3122
2522
2090
1910
1805
1806
1798
1784
1773
1790
1788
1803
1808
1819
1822
1828
1820
1808
1823
1829
1841
1837
1830
1848
1846
1860
1861
1856
1860
1863
1864
1867
1868
1880
1883
1898
1901
1900
1935
1950
1956
1978
2002
2013
2031
2030
2008
2006
1998
1991
1959
1954
1939
1939
1931
1936
1924
1925
1925
1920
1920
1909
1927
1924
1934
1933
1901
1922
1922
1935
1924
1921
1907
1909
1936
1934
1926
1940
1939
1942
1959
1950
1944
1956
1960
1954
1961
1967
1966
1972
1969
1979
1978
1976
1968
1974
1969
1977
1988
1979
1982
1981
1982
1983
1988
1997
1978
1989
1976
1977
1979
1977
1973
1986
1985
2010
2003
1996
2032
2028
2030
2028
2015
2007
2006
2015
2016
2025
2037
2015
2029
2026
2016
2018
2003
2037
1967
1915
1904
2144
2768
3534
4063
4095
3912
3339
2779
2238
2005
1861
1821
1835
1824
1790
1804
1815
1828
1845
1844
1852
1839
1848
1854
1868
1866
1868
1856
1869
1876
1877
1873
1879
1869
1880
1892
1884
1889
1897
1887
1898
1917
1928
1918
1953
1943
1944
1983
1996
2019
2027
2041
2035
2033
2038
2026
2015
1998
1984
1976
1977
1968
1961
1960
1961
1946
1948
1946
1948
1955
1965
1948
1954
1950
1960
1952
1948
1948
1941
1959
1958
1958
1967
1950
1980
1964
1967
1977
1965
1978
1985
1991
1984
1986
1964
1993
1987
2000
1995
1988
1991
1997
2022
1978
2000
1986
2003
1984
2012
2000
1991
2011
2001
1988
1979
1999
2000
2016
2032
2042
2048
2050
2054
2044
2044
2030
2015
2019
2021
2041
2052
2040
2038
2032
2030
2023
2009
2024
2041
1962
1905
1917
2209
2882
3622
4095
4095
3820
3281
2723
2201
1991
1862
1857
1857
1826
1820
1789
1830
1866
1868
1861
1864
1875
1869
1873
1875
1871
1870
1886
1891
1895
1902
1907
1902
1906
1918
1916
1926
1922
1930
1930
1937
1946
1952
1963
1984
1988
2011
2017
2029
2054
2065
2064
2068
2066
2059
2049
2025
2014
2012
2001
1993
1967
1963
1965
1970
1967
1961
1962
1960
1970
1971
1962
1963
1962
1967
1974
1959
1965
1973
1961
1986
1971
1980
1972
1982
1996
1987
2000
1990
1992
2008
1990
2002
2009
1998
2019
2014
2009
2009
2024
2016
2001
2018
1995
2017
2013
2034
2002
2010
2024
2018
2027
2016
2022
2031
2060
2060
2067
2059
2072
2063
2047
2034
2013
2021
2039
2072
2055
2056
2045
2035
2040
2046
2018
2014
2048
1995
1941
1962
2276
2954
3589
4034
4029
3529
3083
2646
2204
1981
1874
1832
1853
1882
1855
1826
1858
1881
1877
1892
1892
1897
1896
1893
1902
1900
1909
1919
1914
1928
1934
1933
1944
1941
1954
1956
1953
1963
1962
1986
2003
2007
1995
2005
2023
2042
2064
2075
2058
2092
2124
2117
2139
2102
2078
2078
2057
2051
2030
2019
2006
1998
2000
1998
1996
1984
1987
1988
1990
1994
1994
1994
1990
1985
1991
1994
1985
2008
2002
2003
2002
1997
2000
1997
2004
2002
2007
2008
2009
2011
2011
2020
2025
2018
2024
2020
2024
2029
2029
2034
2026
2026
2017
2026
2028
2033
2059
2053
2051
2077
2075
2065
2066
2044
2033
2036
2036
2037
2055
2071
2058
2049
2054
2041
2031
2017
2050
2014
1968
1928
2067
2626
3351
3884
4095
3844
3283
2870
2393
2059
1927
1857
1866
1879
1864
1848
1840
1885
1895
1889
1893
1902
1899
1890
1916
1911
1946
1912
1924
1928
1936
1942
1950
1952
1935
1961
1952
1968
1977
1980
1998
1998
2006
2022
2041
2051
2067
2076
2091
2102
2113
2117
2116
2111
2100
2066
2067
2040
2033
2015
2007
1999
1989
2000
1994
1997
1996
1981
1984
1979
1987
1976
1993
1983
1986
1988
1984
1987
1976
1998
2000
1998
2003
1983
1985
1990
2003
2002
1997
1995
1995
2004
2016
2010
2001
2006
2009
2007
2010
2021
2018
2017
2024
2014
2004
2010
2007
1987
2039
2040
2053
2045
2053
2048
2056
2057
2043
2024
2015
2023
2047
2062
2070
2050
2050
2039
2030
2028
2047
2057
1985
1921
1944
2273
2981
3673
4095
4095
3716
3191
2686
2176
1965
1859
1832
1842
1857
1818
1807
1835
1875
1847
1873
1876
1851
1872
1872
1867
1879
1897
1898
1892
1901
1912
1910
1925
1933
1910
1924
1923
1929
1928
1948
1942
1959
1982
1983
1991
2000
2027
2044
2090
2117
2071
2097
2073
2058
2064
2045
2021
2010
2017
2007
1985
1973
1975
1969
1975
1976
1962
1960
1971
1975
1950
1972
1944
1941
1964
1961
1957
1959
1949
1957
1958
1963
1964
1962
1976
1979
1973
1972
1984
1979
1978
1999
1988
1991
1978
1983
1980
1999
1997
2007
1976
1980
2005
2002
2007
1999
1999
1994
1983
1975
1981
1978
2011
2021
2016
2032
2036
2044
2038
2032
2012
2007
2004
2005
2019
2030
2025
2020
2015
2022
2005
1997
2012
2024
1970
1917
1895
2112
2740
3498
4055
4095
3943
3379
2803
2252
1982
1845
1804
1817
1808
1788
1781
1789
1822
1831
1823
1821
1814
1823
1827
1838
1838
1855
1839
1850
1847
1854
1872
1855
1854
1852
1857
1867
1883
1882
1869
1883
1880
1891
1920
1924
1917
1951
1955
1978
2012
2015
2014
2017
2016
2000
1992
1988
1968
1954
1946
1941
1929
1945
1943
1923
1915
1933
1907
1921
1939
1932
1927
1939
1926
1925
1912
1920
1938
1928
1963
1936
1930
1934
1930
1927
1934
1955
1948
1963
1940
1948
1952
1956
1956
1961
1959
1947
1954
1976
1952
1975
1978
1975
1964
1977
1979
1973
1973
1989
1989
1973
1990
1974
1963
1969
1973
1970
1985
2009
2009
2008
2014
2020
2009
2028
2018
1998
2007
1995
1999
2024
2026
2008
2011
2021
1979
2005
2006
2036
1980
1917
1891
2043
2590
3350
3936
4095
4043
3461
2915
2340
2023
1872
1826
1818
1837
1802
1783
1809
1812
1826
1832
1849
1838
1842
1842
1851
1830
1858
1869
1857
1873
1876
1868
1872
1885
1872
1875
1889
1874
1884
1896
1903
1902
1908
1918
1926
1933
1955
1970
1978
2019
2010
2010
2019
2035
2019
2026
2015
1983
1984
1975
1964
1962
1961
1948
1946
1938
1946
1943
1944
1947
1946
1949
1948
1939
1945
1949
1940
1944
1940
1950
1956
1946
1958
1958
1972
1974
1967
1976
1971
1970
1969
1974
1982
1986
1983
1986
1987
1988
1987
1993
1987
1988
1992
2000
2001
2001
1988
1997
1995
2008
2011
1996
1996
1991
1984
1997
2002
2014
2018
2023
2040
2049
2052
2058
2039
2022
2012
2018
2022
2047
2047
2058
2046
2040
2053
2037
2010
2021
2055
1990
1926
1946
2230
2896
3617
4095
4095
3780
3254
2722
2207
1992
1889
1853
1859
1862
1821
1830
1840
1873
1866
1881
1887
1884
1888
1886
1888
1905
1903
1901
1907
1922
1921
1928
1933
1933
1931
1938
1937
1954
1967
1972
1985
1993
1999
2002
2006
2019
2041
2059
2075
2085
2093
2105
2110
2115
2108
2092
2059
2067
2043
2026
2021
2015
2011
2012
2011
1998
1990
1993
2007
1993
2001
2019
1987
2009
1999
1996
1996
2008
2011
2015
2006
2019
1996
1989
2015
2010
2026
2036
2030
2037
2039
2029
2034
2031
2030
2033
2043
2037
2040
2050
2034
2043
2043
2043
2030
2052
2036
2031
2027
2033
2036
2053
2080
2084
2081
2096
2098
2081
2084
2062
2037
2054
2059
2075
2081
2081
2073
2078
2073
2074
2034
2047
2072
2007
1952
1985
2295
3011
3657
4056
4067
3564
3089
2666
2218
1997
1892
1852
1887
1895
1880
1856
1873
1919
1922
1905
1907
1925
1917
1940
1939
1935
1925
1959
1954
1963
1963
1952
1966
1983
1992
1978
1986
1991
1995
2006
2007
2008
2009
2039
2047
2061
2074
2084
2095
2118
2121
2123
2130
2134
2110
2085
2055
2051
2034
2033
2029
2020
2016
2016
1999
1993
1993
1991
1995
1992
1992
1991
1988
2000
2006
2003
1992
1999
1976
1982
1998
1990
2005
2006
1996
2002
1999
2001
2007
2016
2011
2011
2015
2015
2008
2017
2015
2017
2023
2024
2004
2024
2001
2010
2015
2017
2017
2027
2039
2037
2048
2048
2065
2060
2054
2037
2012
2026
2033
2043
2044
2052
2037
2037
2050
2041
2018
2023
2046
1987
1933
1935
2202
2870
3564
4035
4095
3712
3212
2749
2222
1989
1865
1837
1851
1872
1822
1811
1838
1872
1879
1869
1872
1892
1864
1883
1895
1879
1903
1902
1907
1916
1927
1917
1916
1930
1924
1924
1930
1938
1948
1949
1963
1969
1966
1991
2005
2018
2035
2048
2060
2072
2097
2103
2084
2085
2067
2056
2052
2036
2011
1998
1998
1994
1981
1989
1976
1974
1975
1976
1977
1978
1977
1967
1975
1977
1973
1979
1973
1977
1976
1975
1966
1981
1979
1978
1983
1980
1979
1977
1992
1987
1986
1991
1993
1994
1995
1995
1998
2001
1999
2010
2006
2007
2015
2012
2000
2002
2011
2005
2013
2020
2023
1989
1994
1990
1970
1999
2025
2032
2030
2038
2040
2038
2063
2033
2012
2013
2005
2016
2032
2041
2026
2038
2041
2019
1993
1991
2012
2030
1971
1895
1916
2232
2922
3644
4095
4095
3749
3226
2695
2180
1964
1839
1821
1825
1842
1778
1781
1809
1834
1830
1838
1844
1829
1853
1853
1857
1864
1860
1860
1862
1876
1878
1884
1876
1875
1868
1877
1895
1892
1893
1901
1894
1897
1924
1936
1940
1962
1957
1976
2002
2026
2038
2043
2039
2028
2017
2019
2005
1984
1980
1977
1960
1965
1950
1947
1941
1948
1936
1942
1941
1936
1916
1930
1940
1939
1946
1942
1926
1927
1935
1932
1924
1913
1968
1950
1951
1965
1926
1941
1953
1950
1940
1971
1964
1959
1970
1969
1965
1982
1962
1966
1966
1962
1967
1973
1976
1982
1964
1979
1971
1982
1995
1986
1979
1987
1977
1971
1974
1950
1967
1982
1988
2006
2021
2019
2026
2033
1999
2017
1997
1977
1984
1980
1990
1998
1989
1982
1970
1968
1951
1947
1976
1989
1915
1860
1889
2208
2906
3627
4095
4095
3751
3218
2639
2122
1904
1805
1778
1780
1779
1748
1745
1768
1778
1781
1782
1790
1802
1790
1793
1800
1805
1822
1805
1816
1803
1822
1825
1828
1832
1819
1829
1825
1844
1844
1863
1880
1850
1877
1872
1884
1913
1934
1949
1980
1986
2011
2000
2006
1993
1975
1978
1955
1938
1934
1915
1906
1904
1911
1875
1877
1885
1879
1893
1898
1880
1867
1865
1860
1859
1868
1877
1868
1863
1857
1835
1862
1866
1869
1855
1863
1848
1865
1875
1857
1861
1863
1863
1864
1855
1869
1858
1871
1880
1886
1895
1889
1886
1887
1865
1872
1869
1864
1881
1869
1866
1892
1884
1897
1910
1913
1934
1947
1935
1927
1898
1896
1884
1888
1903
1917
1923
1923
1903
1904
1899
1895
1892
1931
1890
1840
1771
1908
2445
3176
3743
4009
3744
3186
2774
2279
1934
1798
1701
1698
1739
1729
1696
1695
1719
1749
1746
1751
1747
1753
1752
1755
1766
1782
1769
1782
1791
1798
1790
1806
1813
1801
1833
1810
1798
1847
1815
1843
1868
1851
1879
1897
1899
1924
1931
1952
1967
1967
1976
1969
1964
1966
1947
1903
1887
1867
1844
1841
1826
1823
1817
1800
1785
1792
1788
1803
1801
1803
1785
1780
1798
1796
1780
1800
1798
1800
1805
1818
1813
1807
1833
1815
1806
1825
1827
1807
1831
1826
1816
1820
1828
1852
1836
1844
1829
1838
1825
1849
1843
1836
1845
1825
1832
1846
1841
1865
1877
1880
1897
1897
1905
1891
1875
1847
1852
1866
1898
1884
1886
1888
1873
1883
1885
1865
1831
1885
1850
1792
1744
1881
2407
3149
3737
4041
3780
3197
2768
2266
1922
1780
1694
1701
1727
1720
1699
1691
1728
1748
1750
1735
1755
1762
1762
1762
1763
1775
1790
1802
1798
1797
1762
1806
1814
1812
1805
1830
1837
1857
1876
1860
1893
1905
1928
1939
1952
1963
2003
2018
2032
2032
2041
2017
2013
2010
1993
1974
1977
1970
1935
1944
1938
1940
1956
1943
1953
1957
1964
1994
1998
2003
2007
1996
2008
2007
2015
2022
2017
2016
2025
2029
2030
2044
2035
2033
2051
2052
2051
2049
2057
2053
2070
2067
2077
2072
2072
2067
2072
2076
2066
2060
2068
2069
2084
2095
2105
2098
2106
2126
2114
2099
2084
2081
2083
2084
2114
2093
2111
2104
2095
2093
2089
2078
2070
2119
2061
1994
1968
2137
2736
3496
4070
4095
4045
3464
2966
2382
2079
1939
1867
1885
1893
1876
1855
1873
1894
1889
1903
1914
1922
1915
1912
1909
1921
1928
1924
1929
1943
1944
1951
1949
1950
1961
1954
1959
1959
1967
1987
1970
1990
2005
2016
2036
2053
2057
2097
2104
2124
2118
2109
2115
2102
2085
2059
2041
2032
2012
2018
2004
2001
1993
1983
1982
1987
1986
1996
1985
1985
1976
1960
1977
1975
1982
1982
1967
1980
1975
1989
1981
1978
1976
1989
1980
1990
1989
1982
1990
2004
1998
1997
2004
2007
2004
2007
2009
2011
2011
2007
1999
2012
2024
2012
2011
2011
1993
2000
1985
1993
1996
2023
2024
2036
2035
2040
2045
2045
2025
2023
2023
2015
2021
2026
2039
2033
2024
2034
2030
2017
2019
2038
2015
1965
1912
1943
2248
2975
3684
4095
4095
3802
3224
2648
2144
1956
1826
1815
1821
1812
1790
1790
1797
1816
1834
1838
1854
1823
1841
1839
1821
1859
1833
1848
1859
1857
1853
1861
1862
1874
1873
1885
1875
1893
1890
1884
1902
1914
1934
1952
1946
1961
1980
1994
2022
2025
2041
2040
2024
2029
1999
1984
1977
1972
1950
1947
1950
1942
1942
1940
1925
1929
1919
1926
1919
1931
1923
1920
1920
1922
1924
1932
1936
1921
1928
1921
1922
1936
1919
1925
1937
1929
1936
1935
1940
1952
1940
1950
1943
1960
1958
1952
1952
1949
1967
1969
1970
1975
1967
1968
1967
1962
1962
1964
1963
1971
1942
1950
1960
1963
1998
1988
2002
2016
2006
2025
2001
2004
1982
1981
1988
1989
2015
2007
1999
1994
2007
1994
1988
1982
1998
1997
1938
1885
1917
2270
2990
3685
4095
4095
3711
3168
2594
2118
1925
1823
1800
1799
1803
1774
1776
1796
1816
1826
1824
1819
1820
1815
1812
1827
1836
1839
1849
1838
1839
1846
1845
1851
1857
1854
1875
1870
1874
1886
1883
1894
1902
1915
1919
1946
1957
1969
1987
1991
2020
2021
2032
2015
2013
2012
1979
1981
1971
1973
1957
1958
1942
1936
1933
1938
1941
1925
1965
1920
1929
1930
1935
1930
1928
1934
1922
1939
1942
1930
1920
1932
1936
1948
1948
1943
1960
1963
1961
1960
1961
1968
1960
1971
1982
1968
1976
1980
1968
1977
1995
1981
1988
1985
1979
1989
1990
1985
1983
1976
2001
1988
1996
1994
1984
1984
2005
1994
2015
2036
2029
2025
2042
2045
2020
2044
2034
2004
2005
2025
2029
2042
2067
1993
2028
2035
2017
1994
2026
2007
1945
1912
1978
2384
3114
3781
4095
4094
3556
3094
2549
2116
1948
1829
1845
1871
1875
1803
1833
1847
1879
1888
1889
1885
1871
1874
1873
1884
1901
1906
1916
1908
1907
1928
1927
1935
1946
1936
1952
1950
1952
1953
1977
1977
2002
1999
2008
2025
2039
2054
2066
2090
2103
2116
2133
2117
2111
2078
2060
2047
2038
2032
2020
1992
1996
1976
1989
1982
1966
1973
1978
1969
1969
1975
1970
1981
1976
1973
1980
1982
1987
1989
2000
1987
1991
1975
1978
1981
1979
1994
2002
1997
2002
2000
2012
2001
2007
2000
2013
2011
2008
2007
2003
2014
2012
2009
2005
2019
2038
2039
2045
2050
2052
2053
2056
2023
2019
2004
2037
2030
2042
2059
2045
2043
2037
2044
2010
2018
2057
1998
1952
1930
2121
2741
3451
3941
4095
3715
3212
2785
2289
2029
1894
1824
1835
1872
1850
1845
1868
1871
1892
1861
1884
1904
1913
1918
1902
1902
1911
1923
1922
1942
1938
1940
1948
1942
1967
1945
1963
1970
1969
1978
1992
1996
2006
2035
2038
2048
2074
2083
2111
2100
2119
2099
2102
2110
2080
2057
2034
2013
2013
2009
1986
1981
1981
1980
1973
1963
1972
1960
1978
1981
1966
1956
1967
1978
1982
1974
1976
1981
1980
2000
1986
1977
2002
1995
2000
1994
2002
2000
2002
2004
1998
2001
2002
2004
2012
2005
2006
2012
2010
2014
2015
2002
2014
2001
2015
2012
2018
1999
2006
2021
2038
2033
2045
2070
2059
2076
2056
2036
2028
2025
2035
2033
2061
2061
2050
2051
2046
2048
2030
2018
2046
1997
1938
1910
2101
2696
3444
3988
4095
3872
3319
2872
2330
2044
1898
1829
1830
1854
1834
1812
1843
1862
1872
1866
1884
1868
1876
1884
1886
1895
1901
1909
1907
1906
1916
1914
1933
1926
1932
1928
1922
1944
1949
1960
1964
1982
1978
2005
2021
2038
2054
2062
2093
2099
2111
2118
2117
2088
2081
2066
2051
2030
2009
1998
1991
1984
1985
1978
1973
1960
1964
1968
1952
1961
1965
1969
1969
1977
1964
1973
1970
1971
1963
1965
1972
1975
1965
1977
1972
1958
1991
1980
1988
1997
1981
1982
1989
1995
1982
1993
1988
1985
2004
2007
2006
2000
1998
1998
1997
2011
1998
2015
2015
2004
1997
1998
1999
2011
2030
2037
2037
2055
2048
2053
2054
2028
2028
2038
2033
2025
2041
2047
2043
2039
2045
2036
2018
2018
2045
2015
1960
1935
1989
2478
3223
3844
4095
4095
3533
3044
2484
2083
1929
1832
1841
1860
1838
1811
1831
1857
1870
1877
1852
1875
1872
1872
1874
1879
1890
1900
1915
1906
1908
1913
1923
1929
1927
1931
1920
1934
1940
1929
1958
1975
1977
2011
1980
2020
2039
2087
2058
2093
2085
2096
2111
2100
2093
2058
2063
2041
2022
1998
2004
1996
1989
1988
1983
1978
1975
1972
1978
1991
1984
1985
1974
1975
1969
1969
1971
1968
1969
1980
1969
1979
1986
1994
1974
1989
1980
1972
1999
2001
1992
1995
2000
1995
1999
2011
2010
2011
2002
1997
1986
2009
2013
2010
2015
2006
2019
2013
2007
2009
2001
2017
2002
2014
2006
2005
2003
2015
2006
2021
2035
2045
2038
2036
2063
2064
2063
2053
2026
2024
2028
2044
2045
2040
2046
2051
2036
2036
2014
2023
2053
2006
1939
1914
2133
2753
3500
4044
4095
3961
3391
2878
2295
2020
1873
1835
1846
1843
1820
1801
1829
1839
1852
1854
1853
1872
1865
1853
1858
1870
1875
1887
1892
1891
1889
1895
1896
1901
1905
1918
1907
1914
1912
1919
1929
1957
1963
1969
1991
2012
2012
2039
2072
2080
2084
2085
2084
2062
2093
2054
2011
2021
1995
1983
1985
1992
1960
1977
1969
1965
1956
1962
1959
1964
1968
1961
1963
1969
1973
1970
1961
1952
1952
1968
1956
1969
1950
1966
1981
1981
1982
1970
1985
1987
1989
1984
1984
1981
1986
1992
2003
2002
2005
1994
1985
2002
1998
2006
1993
2003
1985
2002
2010
1996
2012
1996
1998
2016
1999
2005
2008
2012
2013
2008
1997
1993
1993
2002
2011
2005
2016
2031
2045
2046
2050
2052
2042
2059
2030
2016
2024
2022
2046
2039
2037
2043
2032
2021
2014
2012
2050
2014
1939
1899
2016
2497
3265
3892
4095
4095
3574
3025
2456
2061
1907
1838
1830
1813
1810
1798
1814
1826
1838
1847
1834
1866
1857
1852
1869
1850
1858
1861
1856
1879
1889
1886
1876
1885
1895
1890
1880
1879
1893
1907
1917
1906
1916
1924
1944
1967
1978
1993
2012
2021
2035
2043
2049
2046
2038
2031
2014
1994
2002
1974
1969
1963
1958
1961
1965
1948
1949
1943
1943
1956
1954
1951
1948
1937
1944
1950
1943
1950
1949
1946
1955
1954
1956
1961
1970
1949
1973
1967
1964
1969
1979
1980
1993
1985
1988
1984
1985
1990
2000
1990
1990
1993
1995
1992
1988
2003
2002
2008
1985
2017
2000
2006
2042
1980
2018
2012
2022
2003
2013
2012
1999
2012
2025
2015
2009
2005
2013
2000
2037
2049
2051
2054
2052
2055
2053
2055
2026
2021
2034
2052
2060
2063
2045
2034
2048
2033
2016
2031
2056
1990
1942
1933
2172
2786
3545
4043
4095
3911
3356
2810
2255
2000
1866
1855
1859
1838
1830
1807
1831
1857
1857
1845
1856
1862
1862
1860
1870
1877
1889
1898
1891
1892
1906
1916
1914
1901
1909
1894
1915
1921
1930
1929
1933
1944
1950
1966
1976
1974
2006
2011
2028
2049
2061
2069
2079
2073
2058
2044
2037
2009
2007
2005
1993
1979
1982
1971
1978
1966
1986
1968
1962
1971
1968
1977
1985
1957
1979
1940
1960
1983
1973
1986
1968
1977
1982
1988
1984
1982
1977
1981
1994
1994
1997
1978
1984
1997
1995
2000
1994
1986
1991
2025
2024
1995
2004
1985
2003
2010
2014
2000
1992
1998
1995
1983
1991
1988
2027
2033
2034
2047
2055
2040
2045
2028
2024
2017
2014
2040
2033
2043
2038
2035
2047
2043
2026
2011
2054
1995
1934
1916
2111
2685
3405
3927
4095
3855
3339
2866
2299
2016
1873
1825
1843
1840
1824
1805
1819
1843
1861
1865
1867
1900
1865
1853
1872
1864
1879
1880
1914
1902
1901
1906
1907
1907
1934
1919
1917
1931
1924
1939
1949
1947
1956
1973
1993
1983
2009
2025
2039
2040
2069
2067
2069
2067
2048
2026
2014
2010
1994
1980
1979
1962
1954
1970
1959
1954
1949
1952
1955
1946
1946
1943
1945
1956
1951
1949
1946
1941
1948
1956
1961
1942
1957
1954
1965
1970
1965
1971
1973
1990
1964
1965
1967
1973
1983
1986
1978
1979
1992
1991
2001
1985
1999
1987
1995
1989
1993
2006
2001
2009
2000
2012
2001
2004
2001
1992
2003
1992
1993
2009
2019
2041
2043
2048
2054
2061
2043
2048
2034
2007
2038
2034
2050
2060
2037
2032
2042
2023
2018
2008
2036
2030
1960
1916
1984
2382
3112
3764
4095
4095
3619
3125
2548
2111
1938
1840
1838
1835
1828
1803
1809
1826
1842
1850
1846
1857
1841
1843
1850
1850
1869
1872
1882
1877
1884
1895
1896
1899
1888
1895
1890
1883
1916
1914
1918
1932
1920
1931
1949
1990
1962
2000
1997
2004
2032
2059
2057
2054
2056
2034
2022
2022
1994
1987
1986
1969
1984
1981
1976
1974
1965
1979
1970
1972
1973
1968
1959
1974
1966
1978
1982
1970
1962
1969
1973
1969
1976
1994
1978
1986
1984
1989
1994
1998
1995
1990
2001
2001
2004
2006
1999
1997
1994
2003
2003
2022
2006
2018
2001
2002
2018
2024
2030
2025
2017
2015
2011
2024
2027
2024
2016
2008
2009
2031
2039
2053
2060
2063
2068
2062
2063
2046
2029
2046
2019
2055
2056
2057
2059
2060
2057
2046
2015
2056
2049
1975
1926
1964
2312
3005
3692
4095
4095
3703
3198
2640
2159
1964
1860
1866
1868
1864
1823
1828
1849
1872
1866
1872
1884
1879
1881
1877
1871
1899
1896
1910
1903
1909
1909
1930
1922
1915
1908
1917
1930
1931
1919
1928
1922
1926
1963
1965
1976
1985
1985
2001
2027
2037
2045
2056
2038
2050
2051
2035
2023
2016
1991
1985
1971
1970
1971
1976
1969
1959
1955
1960
1967
1966
1964
1967
1956
1959
1955
1969
1957
1961
1969
1974
1973
1971
1970
1970
1970
1978
1996
1991
1991
1999
1980
1998
1998
2000
1993
2001
2000
1998
2002
2003
2007
1999
2015
2011
2007
2009
1995
2016
2011
2015
2014
2017
2005
2011
2013
2019
2018
2021
2035
2042
2052
2063
2069
2061
2057
2048
2028
2031
2036
2050
2057
2057
2044
2047
2032
2028
1997
2042
2039
1971
1934
1964
2342
3065
3706
4095
4095
3612
3115
2586
2143
1959
1860
1854
1863
1856
1820
1826
1837
1862
1873
1868
1879
1878
1877
1869
1883
1891
1891
1899
1905
1905
1925
1912
1899
1934
1913
1939
1934
1944
1918
1953
1965
1964
1963
1972
2002
2004
2030
2043
2071
2084
2108
2077
2068
2077
2068
2068
2047
2035
2014
2014
1998
1977
1985
1971
1966
1970
1971
1963
1970
1972
1969
1971
1975
1972
1952
1969
1977
1974
1971
1978
1982
1990
2000
1989
1995
1990
1995
1988
2002
1994
2002
1997
2003
2006
2016
2004
2003
2009
1984
2018
2015
2013
2017
1987
1996
1999
1996
1997
2021
2029
2038
2050
2048
2049
2057
2061
2041
2022
2029
2002
2037
2050
2040
2042
2044
2040
2036
2020
2008
2048
2028
1956
1952
2148
2741
3421
3904
4062
3662
3180
2783
2283
2014
1893
1824
1853
1889
1855
1836
1850
1868
1884
1889
1889
1894
1902
1898
1897
1946
1886
1921
1915
1927
1936
1940
1945
1926
1942
1950
1956
1958
1964
1976
1967
1983
1985
2002
2025
2029
2049
2061
2057
2076
2090
2097
2103
2096
2071
2063
2041
2018
2013
2005
2004
2005
1975
1980
1961
1965
1948
1965
1953
1952
1972
1957
1958
1964
1964
1971
1972
1970
1959
1974
1957
1970
1965
1967
1979
1978
1966
1972
1968
1970
1983
1983
1975
1978
1986
1984
1989
1996
1985
2003
1999
1993
1991
1993
1988
1976
1971
1987
1982
2007
2012
2017
2014
2033
2030
2025
2016
1996
1987
1998
2002
2013
2023
2020
2014
2013
2003
1991
1974
2013
1982
1922
1881
2003
2537
3264
3833
4095
3892
3371
2918
2375
2023
1876
1802
1811
1827
1821
1792
1795
1819
1843
1828
1840
1855
1849
1827
1848
1864
1865
1883
1883
1852
1891
1869
1881
1895
1884
1888
1893
1903
1907
1916
1920
1928
1937
1943
1958
1964
1990
2012
2027
2033
2055
2046
2046
2046
2040
2026
2015
1999
1983
1961
1957
1948
1955
1949
1929
1934
1931
1930
1934
1923
1929
1930
1938
1931
1933
1919
1922
1930
1931
1917
1925
1939
1930
1948
1932
1923
1941
1944
1945
1941
1930
1937
1939
1940
1961
1943
1960
1956
1951
1946
1958
1955
1963
1956
1951
1963
1965
1974
1952
1949
1957
1946
1948
1955
1951
1969
1985
1984
1995
1993
2000
1990
1993
1963
1964
1968
1979
1996
1987
1985
1988
1982
1975
1969
1946
1989
1981
1906
1858
1940
2356
3088
3735
4095
4081
3547
3067
2468
2051
1883
1782
1766
1789
1785
1751
1789
1774
1791
1801
1810
1821
1826
1822
1801
1822
1827
1835
1844
1829
1843
1849
1850
1854
1849
1851
1856
1862
1854
1853
1860
1873
1891
1896
1901
1919
1940
1951
1967
1976
1995
2009
2011
2003
1999
1994
1981
1953
1941
1936
1932
1934
1925
1914
1911
1903
1908
1905
1893
1912
1905
1905
1914
1906
1909
1907
1898
1898
1910
1907
1905
1893
1901
1908
1910
1913
1912
1911
1922
1902
1924
1924
1914
1932
1931
1930
1933
1938
1938
1934
1941
1948
1948
1946
1948
1930
1957
1954
1952
1956
1948
1946
1956
1959
1965
1959
1948
1958
1952
1959
1954
1937
1955
1973
1993
1991
1997
1988
2011
1995
2013
1985
1972
1984
1983
1997
1991
2003
1995
2006
1994
1975
1968
1992
1983
1917
1875
1923
2301
2995
3688
4095
4095
3675
3131
2556
2105
1903
1814
1794
1791
1797
1776
1795
1793
1785
1799
1807
1838
1811
1832
1804
1818
1849
1842
1845
1850
1855
1856
1866
1862
1861
1860
1858
1861
1857
1881
1880
1877
1886
1895
1911
1934
1934
1950
1952
1983
1991
2009
2017
2013
2020
2015
2006
1991
1979
1980
1965
1961
1944
1942
1927
1927
1937
1929
1935
1937
1919
1928
1934
1931
1921
1942
1922
1922
1927
1927
1915
1919
1939
1930
1937
1950
1923
1944
1940
1927
1944
1958
1956
1960
1968
1958
1964
1982
1977
1972
1977
1970
1963
1975
1974
1969
1974
1992
1977
1984
1993
1998
1986
1987
1976
1986
1991
1992
1981
1993
1998
1994
1998
2006
1993
2006
2004
2003
1991
1991
2004
1995
2012
2026
2027
2029
2039
2047
2047
2046
2032
2007
1992
2018
2033
2042
2028
2041
2009
2011
2019
2002
2033
2022
1961
1892
1978
2358
3080
3745
4095
4095
3626
3124
2547
2112
1923
1831
1825
1828
1809
1789
1789
1814
1831
1845
1838
1839
1846
1850
1841
1861
1871
1865
1865
1871
1882
1881
1895
1885
1883
1888
1888
1891
1893
1904
1908
1908
1907
1915
1913
1940
1960
1960
1992
1983
1994
2022
2029
2045
2047
2049
2016
2030
2019
2006
2004
1968
1967
1960
1955
1957
1949
1962
1959
1955
1960
1956
1946
1974
1961
1963
1952
1952
1957
1963
1970
1958
1969
1981
1976
1974
1987
1977
1998
1992
1993
1989
1979
1999
1997
2008
2009
1997
1996
2015
2009
2003
2018
2008
2019
2012
2004
2006
2012
2017
2004
2015
2004
2012
2030
2018
1999
2028
2032
2032
2018
2029
2039
2027
2065
2013
2009
2024
2018
2021
2021
2028
2055
2057
2065
2072
2056
2070
2078
2040
2028
2033
2049
2059
2068
2051
2038
2057
2041
2035
2033
2055
2030
1959
1937
2075
2578
3323
3902
4095
4003
3433
2950
2392
2060
1911
1863
1853
1868
1849
1825
1828
1862
1878
1863
1888
1876
1880
1887
1891
1898
1892
1915
1926
1934
1911
1927
1917
1925
1949
1948
1939
1937
1958
1944
1953
1955
1973
1997
1991
2002
1999
2021
2036
2084
2061
2092
2093
2089
2097
2088
2083
2069
2042
2040
2024
2011
1999
2003
1995
1988
1999
1994
1983
1981
1991
1989
1991
2003
1974
1986
1989
1986
1992
2003
1986
1999
1998
2002
1994
1992
2004
1993
2002
2012
2002
2013
2012
2003
2012
2034
2032
2021
2030
2027
2029
2047
2026
2028
2023
2025
2027
2021
2021
2027
2012
2045
2049
2045
2057
2069
2061
2086
2081
2064
2052
2036
2039
2038
2052
2064
2042
2053
2051
2047
2036
2016
2017
2033
1992
1952
2002
2391
3078
3680
4042
3947
3420
3006
2554
2148
1952
1864
1832
1868
1876
1835
1831
1858
1890
1898
1895
1898
1903
1902
1901
1907
1925
1927
1926
1937
1918
1938
1957
1961
1944
1972
1952
1954
1978
1978
1969
1994
1992
2012
2021
2030
2036
2049
2078
2087
2100
2113
2084
2092
2105
2070
2053
2042
2020
2009
2004
1989
1959
1983
1975
1983
1966
1975
1951
1953
1970
1969
1954
1947
1971
1956
1988
1977
1956
1961
1960
1973
1975
1985
1971
1966
1980
1989
1978
1985
1984
1982
1990
1983
1974
1995
1996
1994
1986
1979
1970
1991
2003
1995
2004
1985
1971
1982
1971
1986
2004
2032
2015
2036
2035
2048
2042
2029
2015
1997
2002
2000
2020
2027
2022
2009
2021
2019
2022
1999
1993
2012
1957
1924
1935
2272
2955
3600
4044
4050
3544
3069
2609
2144
1935
1831
1785
1820
1838
1800
1792
1826
1837
1845
1852
1852
1856
1852
1851
1865
1874
1877
1886
1887
1880
1890
1897
1910
1904
1918
1923
1925
1923
1937
1940
1940
1958
1959
1976
1991
2015
2015
2030
2048
2066
2070
2076
2080
2077
2048
2037
2015
1986
1992
1988
1977
1952
1944
1939
1946
1950
1942
1950
1950
1946
1935
1942
1933
1926
1952
1943
1932
1942
1947
1929
1945
1955
1934
1960
1963
1958
1952
1967
1952
1958
1967
1969
1968
1969
1975
1979
1971
1973
1964
1984
1990
1982
1981
1979
1981
1984
1989
1975
1971
1967
1969
1980
1995
2012
2005
2029
2025
2016
2023
2013
1997
1999
1991
2007
2024
2024
2012
2013
2015
2005
1998
1990
2020
2018
1927
1888
1922
2321
3061
3725
4095
4095
3650
3153
2585
2103
1911
1806
1790
1795
1804
1778
1786
1815
1813
1807
1814
1831
1822
1836
1832
1841
1837
1864
1856
1842
1867
1862
1871
1882
1866
1872
1873
1892
1881
1886
1895
1893
1915
1933
1923
1926
1959
1972
1984
2012
2026
2039
2051
2052
2016
2020
1997
1989
1974
1965
1954
1946
1951
1954
1942
1950
1929
1933
1931
1922
1935
1943
1937
1936
1936
1934
1925
1937
1933
1937
1944
1937
1931
1935
1941
1945
1954
1956
1966
1955
1944
1969
1958
1969
1967
1972
1964
1977
1967
1975
1967
1970
1993
1982
1976
1974
1965
1974
1973
1987
1978
1980
1980
1970
1966
1969
1957
1963
1980
2005
2011
2007
2009
2019
2021
2024
2009
1998
1990
1999
2004
2011
2011
2006
2003
2010
1981
1972
2001
2015
1936
1885
1913
2184
2858
3578
4052
4095
3823
3266
2705
2183
1954
1827
1800
1816
1794
1775
1773
1792
1809
1812
1812
1824
1811
1811
1822
1821
1832
1843
1838
1849
1835
1850
1860
1857
1868
1860
1857
1855
1857
1863
1858
1880
1885
1887
1901
1913
1915
1943
1962
1983
1986
1994
2000
2007
2005
1999
1992
1984
1963
1958
1952
1935
1941
1935
1928
1934
1932
1920
1919
1924
1919
1917
1915
1922
1926
1920
1930
1926
1918
1926
1920
1937
1928
1925
1934
1942
1920
1947
1946
1933
1951
1950
1944
1948
1956
1945
1954
1958
1949
1958
1963
1975
1975
1969
1979
1971
1981
1974
1979
1979
1987
1998
1995
2007
1996
1992
1993
1992
1982
1993
2000
1997
2022
2035
2051
2061
2063
2055
2048
2044
2015
2016
2026
2036
2048
2072
2058
2031
2067
2031
2031
2022
2056
2029
1974
1942
2006
2465
3197
3819
4095
4095
3562
3107
2542
2118
1972
1865
1863
1881
1877
1848
1865
1887
1912
1890
1891
1915
1909
1916
1933
1920
1926
1936
1940
1943
1967
1974
1963
1945
1970
1964
1985
1986
1991
1983
1994
2025
2019
2045
2057
2059
2086
2102
2128
2142
2161
2157
2165
2174
2175
2166
2169
2127
2135
2118
2090
2103
2083
2078
2072
2054
2067
2059
2067
2061
2074
2068
2057
2070
2080
2078
2088
2075
2081
2078
2088
2077
2074
2084
2085
2093
2097
2089
2093
2116
2132
2129
2136
2126
2122
2128
2122
2123
2144
2137
2148
2136
2144
2136
2137
2149
2148
2157
2174
2176
2183
2188
2191
2183
2189
2178
2173
2168
2166
2179
2195
2195
2188
2173
2184
2178
2185
2148
2166
2140
2110
2068
2176
2679
3400
3962
4095
4009
3431
3022
2560
2193
2059
1977
1961
2001
2014
1966
1969
2021
2036
2026
2044
2031
2042
2039
2046
2046
2056
2065
2062
2053
2086
2060
2075
2104
2097
2097
2096
2104
2113
2140
2147
2130
2128
2152
2172
2179
2210
2206
2226
2240
2266
2247
2246
2249
2229
2207
2192
2170
2159
2144
2121
2108
2093
2114
2109
2097
2110
2088
2090
2094
2100
2087
2091
2089
2095
2100
2103
2104
2100
2091
2075
2073
2105
2090
2108
2106
2094
2109
2119
2111
2125
2093
2098
2100
2099
2102
2088
2097
2110
2109
2122
2128
2129
2135
2145
2136
2132
2117
2103
2087
2099
2100
2122
2133
2117
2113
2111
2113
2104
2097
2121
2087
2032
1990
2107
2635
3409
3970
4095
3995
3406
2974
2462
2119
1971
1862
1885
1925
1904
1877
1884
1916
1940
1937
1933
1938
1958
1958
1958
1947
1965
1959
1977
1995
1985
1993
1994
1987
1991
1994
1998
2005
2026
2030
2025
2055
2056
2071
2090
2103
2124
2128
2165
2166
2179
2174
2163
2158
2133
2109
2079
2078
2069
2073
2052
2018
2024
2021
2026
2023
2018
2002
2001
2016
2014
2004
2003
2010
2013
2017
2017
2026
2018
2024
2029
2029
2027
2031
2024
2021
2029
2018
2036
2032
2044
2030
2046
2052
2041
2065
2024
2046
2053
2039
2045
2033
2025
2029
2035
2032
2037
2055
2049
2072
2084
2081
2088
2090
2066
2057
2064
2061
2064
2074
2075
2082
2070
2065
2065
2065
2053
2096
2068
2023
1954
1944
2258
2947
3680
4095
4095
3824
3273
2774
2232
2013
1886
1864
1879
1893
1856
1842
1869
1892
1901
1907
1898
1908
1916
1917
1908
1918
1919
1929
1933
1947
1934
1932
1955
1951
1951
1960
1951
1959
1977
1976
1986
2009
2006
2015
2037
2065
2084
2119
2112
2131
2131
2145
2114
2119
2103
2082
2066
2056
2036
2027
2042
2017
2003
1999
2009
2003
2006
1992
1975
1998
1988
1993
1989
1988
1988
1982
1983
1988
1982
1986
1989
1989
1994
2002
1991
1997
2004
2025
1980
2014
1992
2003
2011
2015
1998
2002
2030
2022
2024
2019
2011
2013
2014
2002
2012
2017
2017
2003
2015
2011
2019
2020
1989
2002
2004
2020
2032
2045
2031
2038
2056
2049
2035
2024
2010
2010
2012
2026
2043
2042
2034
2043
2021
2026
1992
1998
2045
1971
1919
1889
2048
2627
3416
3984
4095
4082
3477
2930
2331
2003
1855
1811
1798
1812
1784
1777
1814
1802
1841
1826
1823
1838
1828
1829
1817
1844
1825
1839
1844
1850
1861
1862
1858
1864
1855
1861
1863
1881
1850
1871
1896
1901
1907
1919
1927
1938
1953
1962
1983
2000
2023
2032
2027
2019
2004
2009
1991
1976
1979
1947
1940
1935
1918
1916
1918
1926
1922
1918
1914
1922
1903
1922
1910
1910
1905
1914
1924
1913
1927
1905
1912
1906
1935
1908
1912
1932
1905
1923
1915
1934
1917
1935
1938
1937
1944
1932
1944
1945
1935
1952
1939
1948
1957
1946
1956
1963
1967
1965
1954
1967
1963
1970
1983
1962
1958
1969
1969
1971
1968
1974
1967
1980
1983
1969
1979
1979
1971
1959
1965
1971
1959
1995
2005
1997
2013
2024
2016
2013
2013
1979
1982
2000
2007
2001
2012
2001
1999
2005
1996
1969
1989
2027
1952
1901
1890
2084
2693
3475
4001
4095
3972
3362
2805
2233
1980
1833
1792
1801
1781
1772
1779
1782
1793
1817
1811
1825
1833
1829
1835
1816
1836
1835
1832
1850
1848
1852
1858
1848
1859
1864
1862
1861
1874
1863
1871
1877
1888
1886
1904
1912
1931
1944
1971
1966
1989
2010
2013
2018
2033
2016
2011
2018
2008
1999
1976
1981
1964
1958
1958
1945
1958
1944
1942
1943
1951
1938
1950
1932
1927
1937
1940
1930
1938
1943
1944
1930
1947
1934
1934
1947
1951
1958
1961
1966
1967
1954
1963
1964
1982
1975
1970
1969
1971
1983
2001
1977
1990
1967
1973
2003
1993
2002
1975
1984
1990
2002
2009
1976
1995
1991
2005
2006
2004
1999
2014
2008
2024
2008
1997
2005
2006
2007
2007
1991
2002
2007
2028
2040
2048
2046
2054
2056
2050
2028
2011
2012
2023
2036
2053
2046
2041
2038
2040
2015
2012
2026
2036
1980
1923
1932
2185
2832
3570
4039
4095
3823
3274
2759
2220
1976
1863
1829
1847
1822
1826
1801
1820
1852
1845
1839
1855
1868
1871
1862
1862
1868
1865
1893
1886
1882
1910
1902
1910
1907
1896
1897
1918
1920
1927
1922
1937
1937
1956
1960
1970
1997
2006
2018
2029
2046
2070
2070
2081
2078
2083
2083
2069
2041
2030
2002
1995
1984
1978
1976
1969
1974
1979
1968
1966
1964
1979
1973
1970
1967
1970
1976
1975
1978
1970
1971
1975
1961
1984
1960
1984
1998
1992
1997
1989
1986
1997
2001
1997
1989
1989
1997
2003
2012
2014
2013
1997
1994
2008
1995
2002
2008
2007
1994
2005
2003
2014
2004
2003
2018
2014
2012
2036
2034
2047
2050
2058
2061
2043
2059
2034
2019
2019
2027
2043
2042
2054
2035
2027
2030
2033
2006
2032
2040
1987
1919
1951
2302
3010
3648
4057
4052
3524
3067
2614
2169
1959
1845
1813
1843
1864
1834
1821
1841
1881
1880
1870
1877
1891
1882
1888
1903
1908
1898
1913
1917
1907
1942
1924
1921
1935
1936
1938
1938
1952
1936
1956
1970
1972
1976
1996
2016
2020
2060
2044
2074
2082
2080
2088
2084
2095
2070
2075
2047
2038
2027
2005
2001
1979
1975
1969
1983
1975
1974
1968
1976
1980
1964
1971
1972
1974
1980
1976
1973
1969
1975
1979
1980
1981
1970
1986
1992
1987
1993
1981
1983
1997
1996
1993
1998
1987
1997
1997
2009
2001
2005
1988
2002
2001
2006
2012
2011
2010
2000
1996
2001
1996
1998
1999
2012
2034
2048
2049
2057
2050
2060
2054
2053
2027
2024
2034
2029
2049
2057
2036
2054
2053
2049
2036
2024
2021
2048
1998
1928
1928
2194
2820
3548
4021
4095
3769
3247
2771
2233
1991
1874
1820
1833
1857
1837
1828
1855
1865
1883
1874
1878
1889
1894
1882
1889
1907
1917
1916
1920
1907
1919
1930
1934
1929
1933
1936
1932
1954
1945
1955
1984
1962
1993
2002
2011
2018
2041
2051
2077
2096
2110
2107
2098
2114
2099
2074
2049
2054
2016
2025
2031
1971
2009
2000
1997
1979
1989
1964
1970
1979
1976
1972
1975
1979
1981
1973
1976
1984
1988
1987
1983
1988
1993
1998
1995
1990
1990
1988
2001
1990
2000
1988
1986
1996
2008
2003
2000
1998
2004
2012
2015
2005
2000
2003
2018
2018
2020
2011
2013
2012
2030
2014
2001
2018
2024
2016
2028
2022
2013
2004
2018
2018
2026
2056
2043
2050
2081
2074
2074
2066
2045
2028
2031
2034
2053
2064
2062
2038
2049
2052
2035
2014
2052
2020
1976
1918
1967
2327
3060
3761
4095
4095
3659
3156
2619
2137
1954
1852
1830
1871
1844
1796
1830
1831
1863
1855
1868
1859
1880
1880
1877
1876
1890
1895
1892
1892
1896
1907
1913
1926
1911
1912
1922
1915
1921
1928
1933
1938
1938
1952
1962
1973
1981
1991
2019
2027
2052
2062
2073
2077
2084
2075
2050
2036
2024
2013
2013
1993
1986
1983
1982
1998
1972
1975
1965
1959
1959
1947
1966
1969
1966
1961
1968
1943
1961
1979
1972
1964
1973
1987
1977
1964
1987
1982
1970
2000
1976
1983
1999
2001
1989
1984
2002
1997
1990
1998
1992
1988
2015
2022
2014
2021
2001
2000
2009
2017
2011
2015
2020
2015
2023
2028
2018
2001
1999
2009
1997
2002
2012
2027
2039
2052
2042
2043
2056
2049
2043
2051
2019
2020
2025
2042
2041
2047
2044
2044
2043
2029
2004
2035
2038
1966
1917
1952
2280
2971
3685
4095
4095
3792
3236
2679
2161
1982
1836
1834
1834
1822
1821
1827
1851
1853
1861
1877
1870
1873
1866
1868
1867
1893
1877
1890
1896
1900
1892
1907
1909
1899
1908
1916
1908
1907
1926
1928
1923
1942
1929
1938
1955
1963
1989
2004
2018
2042
2035
2063
2061
2066
2055
2054
2034
2021
2011
2007
1990
2005
1979
1984
1982
1977
1969
1978
1978
1967
1973
1976
1959
1978
1972
1973
1970
1975
1978
1982
1976
1970
1980
1988
1990
1971
2002
1994
1996
2009
2007
2008
2006
2006
1991
2012
2017
2016
2006
2010
2006
2008
2013
2016
2013
2021
2011
2012
2014
2021
2027
2031
2034
2035
2013
2025
2013
2014
2023
2023
2019
2021
2007
2006
2009
2020
2006
2056
2028
2037
2059
2068
2055
2038
2047
2015
2036
2033
2048
2056
2053
2046
2039
2039
2013
2024
2039
2052
1983
1932
1951
2251
2927
3639
4095
4095
3824
3270
2699
2196
1971
1852
1847
1848
1835
1811
1811
1830
1845
1859
1859
1877
1861
1863
1866
1868
1871
1876
1878
1887
1896
1898
1888
1893
1888
1894
1902
1909
1904
1891
1901
1908
1903
1906
1913
1928
1929
1963
1972
1983
2008
2018
2027
2043
2039
2047
2030
2032
2020
1993
2008
1991
2002
1986
1973
1979
1962
1973
1966
1970
1962
1970
1958
1969
1968
1960
1974
1969
1961
1972
1977
1975
1985
1976
1964
1983
1969
1981
1980
1993
1967
1981
1989
1994
1980
2003
2008
1987
2021
1990
1992
1990
1991
1990
1991
2003
1997
2003
1999
2003
1987
2000
2007
2011
2020
2009
2007
2006
2006
1999
1997
2011
2004
2007
2009
2003
2006
1987
2000
1998
2006
2036
2039
2045
2033
2047
2043
2039
2037
2004
2013
2030
2040
2046
2043
2028
2042
2032
2032
2008
2029
2017
1951
1911
2003
2425
3153
3780
4095
4095
3552
3066
2498
2067
1929
1840
1837
1829
1837
1797
1815
1846
1862
1861
1866
1859
1859
1857
1862
1870
1884
1883
1871
1893
1895
1904
1913
1896
1901
1905
1906
1912
1922
1917
1936
1933
1949
1947
1949
1964
1975
1982
2008
2013
2036
2055
2065
2064
2082
2073
2063
2060
2044
2025
2015
1991
1998
1992
1984
1982
1979
1976
1985
1975
1971
1968
1958
1974
1980
1977
1972
1964
1980
1964
1980
1967
1971
1984
1994
1991
1988
1976
1973
1993
2009
2014
2001
1988
1993
1991
2003
1996
2000
1991
2008
2003
2005
1999
1994
2004
2004
2000
2001
2003
2013
2018
2006
2003
2008
2001
2013
1995
2026
2039
2040
2046
2047
2045
2056
2045
2040
2006
2015
2027
2038
2053
2048
2034
2034
2046
2031
2018
2014
2031
1995
1967
1941
2153
2759
3411
3910
4077
3698
3159
2776
2276
1997
1905
1838
1822
1857
1860
1815
1860
1886
1854
1858
1873
1885
1871
1897
1892
1891
1899
1925
1900
1909
1924
1918
1920
1936
1941
1945
1940
1943
1928
1942
1952
1950
1968
1976
1981
1985
2018
2033
2038
2063
2059
2066
2080
2086
2074
2074
2057
2041
2013
2019
1994
1989
1988
1979
1957
1957
1975
1965
1985
1966
1956
1965
1961
1964
1967
1973
1974
1981
1969
1976
1977
1975
1973
2001
1973
1992
1995
1988
1982
1995
1994
1987
1993
1986
1988
1999
1993
1977
1992
1982
1994
1999
1996
2000
1989
2005
2000
1996
1994
1988
1991
2003
1998
1991
1994
2016
2018
2028
2034
2037
2058
2041
2036
2022
1998
2007
2003
2030
2027
2036
2032
2024
2017
2023
2015
2011
2025
1990
1929
1909
2176
2744
3455
3976
4095
3772
3246
2796
2239
1995
1871
1805
1819
1852
1837
1817
1836
1850
1868
1870
1883
1870
1861
1869
1869
1891
1886
1892
1884
1898
1909
1915
1919
1902
1913
1903
1912
1915
1920
1927
1923
1949
1952
1957
1973
1969
1980
1998
2015
2027
2054
2066
2065
2066
2069
2046
2042
2025
2008
2002
1970
1985
1976
1971
1998
1932
1960
1972
1967
1974
1988
1968
1945
1975
1963
1956
1965
1975
1971
1978
1992
1969
1979
1982
1982
1983
1991
1978
1983
1970
1987
1987
1994
1987
1985
1987
1983
1991
2006
1992
1991
2001
2004
2001
2002
1992
1995
2001
2000
2013
2010
2012
2014
2001
2022
2018
2022
2012
2032
2014
2016
2010
1999
2009
2027
2033
2047
2043
2047
2057
2059
2055
2032
2013
2026
2029
2054
2049
2054
2044
2074
2040
2034
2011
2032
2028
1982
1911
1940
2283
2990
3678
4095
4095
3728
3211
2671
2170
1965
1851
1834
1842
1856
1810
1804
1846
1851
1862
1854
1862
1870
1879
1893
1843
1883
1866
1888
1907
1891
1892
1895
1893
1908
1895
1900
1896
1902
1891
1897
1906
1900
1922
1920
1937
1953
1971
1995
1982
2015
2031
2038
2053
2064
2035
2042
2042
2033
2017
1990
1987
1981
1987
1977
1960
1968
1965
1971
1959
1973
1946
1960
1971
1969
1972
1964
1950
1963
1973
1968
1969
1966
1960
1976
1962
1973
1959
1961
1981
1983
1982
1986
1982
1979
1987
1982
1969
1991
1976
1987
1989
1996
1986
1997
2002
2004
1997
2002
2004
1999
2003
1995
1999
2012
2017
2012
2015
2009
2006
2016
2015
2004
2015
2008
1997
2015
1988
1997
1997
2031
2022
2045
2056
2051
2062
2062
2042
2013
2019
2004
2018
2048
2039
2019
2036
2051
2017
2010
2023
2040
2000
1944
1917
2098
2665
3435
3984
4095
4017
3427
2880
2320
2009
1868
1825
1819
1822
1806
1791
1811
1811
1829
1842
1848
1854
1850
1848
1856
1865
1856
1864
1873
1861
1886
1888
1886
1887
1890
1892
1890
1880
1880
1888
1893
1894
1906
1907
1925
1933
1937
1946
1958
1990
1995
2012
2031
2014
2047
2045
2026
2028
2003
1996
1998
1991
1973
1976
1971
1965
1960
1967
1953
1960
1960
1954
1958
1957
1946
1963
1972
1957
1957
1955
1955
1958
1968
1968
1962
1981
1979
1980
1979
1972
1971
1987
1992
1982
1983
1985
1984
1990
1994
1999
1996
2000
1994
2000
2003
2008
1985
2008
2002
1989
2017
1999
1996
2004
2011
2017
2002
2016
2014
2018
2024
2015
1995
2006
2015
2012
1987
2023
2034
2044
2064
2066
2061
2058
2064
2051
2032
2040
2036
2062
2054
2056
2037
2064
2061
2050
2040
2036
2057
2009
1938
1949
2209
2852
3567
4069
4095
3871
3318
2796
2240
1989
1880
1857
1855
1849
1841
1822
1849
1893
1861
1885
1875
1882
1873
1883
1884
1892
1900
1914
1911
1914
1914
1922
1924
1923
1933
1927
1916
1928
1931
1933
1937
1939
1931
1952
1955
1966
1991
2002
2015
2038
2035
2066
2069
2077
2078
2073
2067
2046
2047
2040
2013
1996
2002
1986
1995
1998
1979
1987
1991
1991
1974
1999
1976
1968
1981
1981
1982
1997
1991
1998
2019
2018
1968
1999
1957
1982
2012
2012
2002
2000
2021
2013
1997
1999
2027
2004
2029
2026
2013
2022
2034
2019
2018
2033
2045
2048
2028
2036
2005
2023
2036
2028
2036
2044
2040
2031
2038
2020
2021
2047
2029
2021
2026
2051
2034
2068
2091
2062
2089
2075
2036
2043
2035
2027
2046
2066
2058
2053
2045
2067
2050
2038
2019
2045
2016
1971
1954
2126
2690
3382
3896
4095
3791
3229
2808
2318
2008
1916
1844
1835
1849
1842
1817
1834
1867
1874
1865
1879
1896
1885
1883
1904
1901
1910
1909
1924
1913
1925
1938
1932
1932
1934
1940
1943
1932
1940
1940
1945
1946
1961
1978
1973
2005
1981
1985
2013
2033
2052
2066
2083
2069
2075
2064
2052
2031
2036
2030
2015
1987
1972
1966
1967
1979
1961
1956
1965
1960
1964
1970
1964
1972
1978
1988
1980
1975
1975
1974
1978
1974
1973
1983
1975
1981
1980
1967
1974
1955
1978
1986
1996
1996
1979
1988
1996
2002
1986
1989
1988
1991
1993
1994
1990
2001
2002
1997
1996
1988
1986
1999
1993
2004
2009
2034
2030
2047
2037
2048
2051
2033
2028
2025
2026
2017
2040
2053
2051
2040
2041
2046
2030
2019
2007
2036
2007
1969
1917
2100
2663
3382
3901
4095
3824
3284
2874
2347
2037
1894
1819
1837
1853
1839
1804
1828
1862
1876
1856
1878
1877
1866
1885
1876
1881
1886
1900
1905
1903
1922
1897
1922
1919
1922
1925
1928
1934
1936
1931
1935
1938
1955
1963
1979
1985
2002
2007
2034
2036
2052
2063
2079
2072
2062
2065
2055
2048
2038
2014
2007
1993
1990
1972
1983
1980
1980
1967
1972
1962
1965
1970
1971
1975
1988
1959
1982
1957
1956
1989
1978
1977
1968
1991
1986
1996
2003
1985
1997
1993
2004
1983
1994
1992
1979
1973
1998
1990
1997
2007
2001
2005
2010
2010
2007
1998
2002
1998
2015
2013
2013
2005
2007
1993
1995
1994
2013
2022
2046
2041
2045
2043
2046
2065
2052
2047
2022
2012
2017
2040
2053
2042
2043
2040
2046
2020
2025
2019
2025
1983
1913
1920
2220
2883
3605
4074
4095
3799
3269
2725
2197
1966
1855
1831
1834
1830
1811
1789
1816
1832
1839
1850
1847
1856
1847
1864
1856
1856
1875
1867
1881
1886
1884
1894
1887
1880
1887
1867
1886
1877
1899
1889
1899
1906
1913
1917
1924
1939
1963
1979
1998
2012
2019
2027
2036
2045
2036
2023
2004
1987
1980
1973
1970
1963
1969
1959
1952
1951
1958
1951
1948
1950
1952
1936
1944
1952
1944
1937
1952
1949
1942
1949
1931
1928
1952
1952
1952
1957
1955
1951
1959
1959
1955
1954
1966
1954
1966
1957
1957
1963
1960
1969
1967
1972
1971
1977
1966
1981
1983
1970
1981
1973
1991
1980
1971
1973
1987
1990
1994
1997
1981
2001
1988
1990
1983
1978
1990
1984
1981
1973
1982
1998
2012
2021
2026
2031
2042
2046
2018
2007
1995
1985
1997
2029
2027
2022
2009
2022
2008
2001
2013
2025
2016
1937
1895
1960
2342
3069
3720
4095
4095
3677
3148
2567
2113
1937
1825
1835
1837
1810
1800
1809
1826
1835
1856
1858
1853
1883
1839
1857
1846
1863
1870
1876
1887
1886
1884
1896
1902
1901
1891
1907
1896
1894
1911
1902
1912
1921
1914
1932
1932
1941
1960
1985
2000
2015
2028
2047
2046
2055
2046
2049
2035
2022
2033
2007
2000
1997
1984
1999
1983
1984
1971
1976
1979
1983
1972
1982
1983
1983
1993
1989
1988
1988
1993
1992
1993
1993
1979
1999
1993
2003
1993
2008
1992
1999
2006
2006
2008
2009
2006
2003
2002
2003
2001
2012
2011
2016
2009
2009
2005
2011
2010
2018
2014
2017
2031
2043
2045
2035
2038
2040
2053
2033
2035
2035
2040
2050
2015
2033
2004
2044
2066
2068
2078
2082
2080
2072
2048
2033
2022
2045
2053
2064
2058
2054
2052
2058
2049
2036
2031
2067
2030
1988
1927
2050
2565
3312
3905
4095
4063
3502
3020
2455
2079
1941
1854
1855
1883
1869
1848
1872
1887
1917
1913
1909
1891
1899
1898
1909
1921
1922
1923
1936
1933
1933
1929
1931
1945
1947
1952
1949
1932
1956
1955
1955
1952
1977
1954
1981
2001
2016
2014
2040
2056
2054
2073
2082
2100
2086
2090
2071
2044
2038
2022
1999
2000
1996
1983
1985
1976
1981
1977
1975
1970
1978
1979
1984
1975
1983
1985
1976
1970
1981
1962
1971
1986
1992
1973
1989
1992
1994
1993
1985
1990
1984
2005
2003
1976
1989
1974
1976
1989
1984
1981
1982
1991
1989
1985
1975
1987
1989
1991
1982
1982
1991
1990
2023
2017
2017
2012
2016
2017
2006
2002
1987
1982
2002
2001
2011
2023
2004
2019
2004
2001
1985
1963
1970
1953
1913
1891
2024
2565
3272
3782
4046
3744
3184
2781
2334
1999
1860
1798
1775
1818
1819
1794
1789
1842
1855
1829
1837
1858
1857
1859
1869
1857
1881
1883
1895
1902
1900
1889
1903
1917
1913
1920
1910
1924
1926
1955
1940
1959
1970
1967
1982
1998
2009
2021
2037
2048
2050
2058
2074
2060
2050
2039
2026
2014
1991
1974
1953
1948
1950
1947
1917
1955
1940
1945
1941
1941
1930
1936
1935
1942
1939
1928
1952
1943
1946
1953
1946
1957
1966
1976
1949
1961
1953
1967
1968
1978
1974
1966
1977
1986
1972
1981
1971
1972
1986
1988
1979
1982
1970
1983
1970
2008
2008
1999
2036
2025
2028
2025
2010
2004
1988
1985
1990
2009
2019
2020
2003
2007
2004
2015
1971
1984
2000
1952
1904
1912
2178
2852
3542
3996
4067
3578
3075
2654
2179
1952
1830
1786
1802
1831
1799
1784
1808
1837
1847
1831
1854
1863
1850
1864
1867
1889
1865
1901
1882
1895
1908
1922
1910
1911
1916
1927
1916
1915
1947
1953
1959
1962
1979
1979
2008
2023
2030
2048
2056
2075
2063
2081
2072
2070
2046
2032
2015
1994
1983
1983
1955
1955
1945
1942
1936
1933
1934
1943
1931
1936
1950
1938
1955
1931
1918
1927
1930
1935
1935
1940
1923
1934
1937
1941
1940
1943
1928
1940
1943
1945
1933
1949
1920
1934
1952
1943
1958
1951
1951
1956
1945
1949
1953
1956
1948
1954
1947
1951
1945
1940
1947
1928
1960
1942
1942
1976
1959
1982
1983
1990
1984
1979
1966
1956
1951
1964
1988
1990
1984
1971
1974
1981
1950
1950
1980
1976
1916
1855
1875
2224
2932
3645
4095
4095
3694
3151
2589
2087
1891
1767
1755
1768
1761
1733
1735
1759
1770
1769
1779
1787
1784
1794
1789
1797
1811
1809
1810
1811
1817
1816
1829
1825
1823
1833
1835
1849
1830
1843
1851
1846
1862
1874
1877
1894
1918
1929
1939
1959
1969
1971
1989
1998
1970
1977
1972
1951
1945
1915
1898
1903
1881
1892
1893
1890
1886
1883
1896
1883
1901
1875
1881
1889
1875
1882
1876
1867
1884
1882
1879
1883
1877
1871
1881
1885
1874
1895
1897
1895
1887
1886
1904
1908
1924
1915
1910
1902
1914
1908
1916
1923
1917
1914
1927
1918
1922
1922
1923
1928
1920
1938
1935
1936
1948
1929
1949
1943
1940
1936
1950
1930
1929
1944
1933
1940
1944
1967
1972
1979
1989
1973
1988
1983
1978
1949
1960
1947
1966
1988
1978
1975
1971
1964
1956
1945
1944
1968
1920
1863
1866
2019
2616
3350
3892
4095
3943
3361
2813
2252
1946
1823
1771
1757
1766
1752
1769
1739
1782
1773
1775
1800
1808
1801
1805
1813
1810
1816
1822
1816
1820
1826
1828
1834
1839
1834
1835
1837
1844
1839
1854
1864
1866
1869
1878
1885
1908
1926
1936
1938
1967
1971
1984
1996
2000
1997
1993
1975
1967
1941
1942
1931
1935
1931
1910
1923
1923
1927
1915
1913
1902
1898
1916
1893
1910
1905
1907
1914
1910
1908
1910
1903
1923
1911
1905
1907
1915
1919
1932
1925
1935
1932
1936
1938
1936
1941
1943
1946
1952
1939
1944
1943
1965
1954
1951
1961
1952
1949
1956
1957
1953
1967
1973
1961
1966
1962
1951
1961
1974
1965
1963
1955
1955
1946
1954
1946
1957
1938
1957
1977
1976
1992
2000
1993
1980
1971
1948
1948
1953
1979
1983
1963
1983
1959
1979
1973
1959
1939
1965
1953
1891
1838
1919
2362
3104
3726
4095
4050
3517
3009
2445
2027
1867
1787
1777
1774
1764
1738
1754
1765
1795
1791
1803
1797
1801
1797
1796
1823
1816
1824
1821
1832
1843
1829
1845
1841
1850
1853
1861
1860
1862
1874
1866
1882
1895
1903
1906
1915
1932
1939
1967
1970
1991
1967
2019
2029
2018
2024
1997
1992
1997
1963
1953
1956
1923
1967
1916
1907
1921
1902
1915
1914
1921
1907
1926
1922
1927
1922
1919
1926
1925
1931
1932
1941
1929
1936
1924
1919
1934
1952
1940
1945
1955
1934
1958
1963
1955
1954
1962
1964
1964
1969
1962
1959
1959
1972
1969
1976
1975
1967
1957
1980
1980
1964
1985
1994
1988
2010
2015
2022
2038
2040
2004
2002
1994
1965
2001
2012
2017
2024
1997
2009
2003
2017
1988
1998
2002
1967
1902
1953
2321
3012
3657
4052
3978
3423
2992
2549
2116
1935
1829
1799
1841
1858
1816
1812
1841
1867
1868
1877
1885
1894
1855
1882
1888
1917
1889
1922
1915
1908
1950
1925
1926
1925
1951
1955
1951
1949
1960
1964
1972
1988
1982
2002
2017
2047
2041
2058
2067
2075
2090
2093
2093
2096
2070
2065
2040
1997
2027
2020
1997
2014
1948
1970
1954
1952
1962
1964
1968
1984
1963
1967
1973
1957
1980
1981
1972
1973
1968
1982
1977
1990
1983
1985
1987
1977
1987
1995
1987
1991
1992
2003
1983
1998
1994
1993
2001
2005
2005
1988
2000
2001
1988
2010
2009
2007
1993
1997
1976
1989
1978
2020
2014
2025
2040
2039
2043
2024
2039
2012
2018
2005
2005
2023
2023
2037
2022
2017
2022
2026
1986
1990
2011
1969
1930
1908
2085
2689
3403
3939
4095
3815
3258
2840
2299
1995
1883
1806
1806
1838
1817
1792
1820
1838
1849
1849
1857
1854
1860
1857
1860
1882
1869
1887
1892
1890
1885
1904
1884
1892
1907
1912
1911
1918
1920
1931
1937
1944
1948
1964
1983
2001
2002
2015
2033
2059
2076
2083
2081
2063
2052
2052
2019
2002
1994
1980
1962
1964
1962
1948
1958
1954
1942
1958
1940
1936
1936
1937
1936
1932
1940
1943
1929
1947
1944
1943
1941
1949
1938
1943
1946
1941
1950
1967
1960
1948
1954
1957
1949
1964
1957
1955
1969
1955
1966
1967
1966
1964
1963
1972
1964
1980
1973
1972
1960
1970
1973
1983
1985
1967
1977
1977
1965
1977
1973
1962
1985
1997
1997
2009
2020
2020
2021
2024
2004
1976
1970
1980
1993
2005
2011
1997
1985
1997
1989
1976
1978
1993
1944
1880
1872
2108
2727
3472
3991
4095
3857
3306
2788
2222
1961
1830
1771
1791
1797
1764
1760
1785
1809
1809
1826
1811
1810
1818
1818
1817
1829
1845
1847
1845
1850
1858
1856
1871
1883
1871
1856
1881
1876
1890
1892
1887
1903
1901
1910
1917
1932
1948
1976
1970
1994
2006
2003
2025
2030
2013
2014
2002
1982
1973
1973
1948
1940
1931
1930
1932
1934
1936
1937
1901
1931
1915
1908
1926
1919
1921
1920
1926
1926
1923
1921
1921
1929
1927
1923
1927
1936
1926
1935
1938
1946
1949
1951
1929
1943
1949
1960
1947
1955
1950
1949
1965
1964
1961
1962
1973
1977
1969
1978
1957
1968
1980
1982
1977
1990
1975
1973
1997
1981
1994
1991
1982
2000
1983
1990
1972
1972
1962
1966
1983
1994
2015
2014
2003
2022
2019
2035
2005
1995
1973
1977
1986
2021
2006
2003
2003
2005
1998
1983
1991
2015
1998
1928
1879
1940
2318
3053
3745
4095
4095
3694
3135
2547
2109
1924
1793
1818
1806
1816
1759
1799
1778
1802
1824
1825
1821
1822
1839
1839
1837
1830
1843
1844
1852
1854
1856
1853
1855
1855
1871
1865
1886
1889
1849
1879
1864
1881
1884
1911
1902
1914
1941
1951
1976
1996
2003
2016
2010
2018
2012
2015
1992
1975
1989
1977
1978
1976
1961
1950
1947
1937
1937
1938
1943
1941
1946
1942
1942
1940
1923
1948
1931
1943
1943
1944
1915
1922
1945
1933
1969
1962
1939
1956
1953
1953
1962
1974
1959
1964
1961
1966
1970
1980
1968
1972
1973
1973
1983
1989
1984
1982
1992
1992
1988
1989
1985
1991
1982
1986
1996
1993
1997
1992
1978
1985
1987
2000
1991
1987
1986
1977
1983
1982
1982
1979
1991
2024
2004
2025
2024
2024
2043
2022
2009
2002
1987
2006
2033
2041
2016
2009
2024
2003
2005
1998
2011
2010
1953
1893
1946
2323
3037
3695
4095
4095
3665
3158
2593
2117
1937
1827
1833
1830
1826
1791
1783
1821
1801
1841
1849
1846
1855
1841
1851
1850
1857
1857
1861
1877
1873
1881
1883
1882
1881
1893
1896
1890
1896
1901
1918
1924
1969
1928
1941
1954
1953
1976
1980
2004
2013
2040
2062
2067
2053
2067
2051
2040
2027
2017
2004
1995
1992
1965
1978
1973
1975
1961
1967
1962
1961
1970
1976
1960
1959
1960
1962
1970
1971
1971
1972
1977
1986
1973
1972
1974
1967
1979
2002
2008
1998
1996
2007
1997
2014
2025
2007
2009
2018
2003
2019
2013
2018
2014
2033
2041
2030
2031
2045
2036
2030
2032
2027
2013
2022
2030
2026
2053
2060
2053
2072
2072
2097
2051
2062
2032
2017
2039
2054
2063
2066
2077
2063
2069
2070
2062
2046
2038
2041
2009
1959
1996
2351
3024
3653
4060
4060
3519
3087
2628
2183
1987
1881
1847
1871
1895
1868
1845
1878
1881
1899
1886
1890
1917
1899
1912
1920
1906
1929
1932
1937
1936
1959
1946
1956
1976
1972
1963
1965
1965
1965
1990
1989
1979
2002
2014
2033
2040
2056
2057
2084
2109
2109
2111
2112
2108
2110
2093
2084
2035
2038
2018
1996
1988
1990
1972
1973
1985
1978
1982
1974
1971
1976
1976
1990
1963
1986
1973
1974
1997
1982
1979
1977
1979
1991
1985
1994
1991
1998
2004
1995
1985
1996
1999
2009
1989
1999
1989
1998
2006
2006
1979
1993
2020
2006
2012
2003
1994
2000
1998
1989
1979
2012
2022
2040
2035
2036
2035
2031
2025
2020
2003
2003
2006
2018
2041
2030
2020
2024
2007
2022
2020
1986
2006
2001
1954
1926
1989
2462
3173
3748
4081
3870
3288
2886
2427
2060
1909
1821
1790
1837
1844
1816
1807
1848
1875
1867
1872
1870
1885
1884
1896
1886
1882
1916
1898
1920
1926
1914
1925
1930
1936
1940
1951
1950
1950
1963
1973
1968
1983
2003
2000
2033
2038
2063
2052
2082
2113
2111
2146
2109
2068
2074
2034
2035
2021
1998
1971
1972
1962
1948
1937
1941
1949
1950
1951
1950
1952
1967
1961
1931
1935
1951
1940
1954
1952
1946
1951
1959
1956
1947
1964
1960
1968
1960
1975
1967
1967
1985
1956
1978
1981
1978
1973
1986
1993
1983
2021
1974
1970
1993
1985
1985
1987
1988
1977
2006
2022
2020
2025
2032
2035
2044
2035
2038
2022
2016
2019
2012
2045
2054
2033
2030
2026
2020
2033
2016
2023
2036
1983
1927
1951
2300
3000
3690
4095
4095
3546
3035
2564
2145
1977
1866
1839
1852
1892
1848
1851
1864
1885
1896
1904
1914
1908
1912
1916
1922
1931
1934
1946
1953
1963
1945
1953
1958
1979
1992
2006
1996
1974
1999
2006
2003
2015
2039
2046
2065
2095
2093
2112
2135
2157
2148
2162
2148
2136
2118
2117
2086
2071
2050
2042
2035
2015
2000
1994
1999
1994
2002
2017
2003
1992
2009
2003
1999
2015
1994
2000
2003
2003
1995
2007
2008
2018
2021
2029
2018
2015
2032
2019
2018
2024
2000
2027
2023
2025
2034
2021
2024
2032
2037
2032
2032
2005
2018
2033
2049
2086
2041
2072
2073
2094
2067
2076
2033
2010
2052
2051
2066
2067
2066
2063
2050
2061
2053
2036
2035
2064
2019
1964
1929
2111
2691
3442
4004
4095
3922
3323
2851
2317
1999
1901
1814
1841
1883
1847
1833
1835
1863
1891
1887
1897
1883
1902
1898
1903
1912
1913
1910
1912
1909
1929
1938
1948
1941
1944
1950
1956
1967
1991
1987
1995
2000
2020
2010
2037
2055
2064
2101
2121
2128
2140
2140
2117
2121
2096
2064
2057
2043
2033
2027
2018
1986
1992
1991
1994
1978
1991
1970
1964
1978
1980
1968
1973
1972
1978
1981
1988
1995
1983
1998
1987
1982
1996
1981
1988
1982
1994
1989
2001
2015
2006
2004
1989
1988
2006
2005
2013
2004
2008
2019
2025
2014
2039
2006
2012
2016
2020
2002
2011
2019
2011
2027
2014
2012
2021
2023
2032
2057
2034
2048
2060
2048
2066
2060
2046
2046
2036
2014
2034
2055
2056
2064
2034
2023
2016
2004
1999
2021
2028
1963
1913
1952
2327
3050
3750
4095
4095
3685
3132
2595
2118
1931
1829
1818
1822
1819
1791
1792
1807
1822
1833
1828
1847
1842
1829
1827
1841
1863
1857
1874
1869
1860
1871
1881
1883
1885
1901
1890
1901
1896
1894
1897
1919
1904
1934
1954
1946
1979
1978
2000
2008
2021
2047
2046
2054
2056
2022
2023
2009
1986
1968
1958
1948
1940
1945
1934
1934
1935
1936
1924
1930
1923
1936
1935
1929
1931
1912
1936
1931
1931
1921
1925
1928
1929
1935
1928
1935
1940
1931
1935
1937
1925
1931
1946
1945
1944
1952
1953
1946
1948
1944
1947
1942
1955
1947
1958
1961
1969
1955
1969
1958
1948
1963
1963
1960
1958
1958
1964
1973
1959
1955
1964
1967
1985
1961
1956
1950
1949
1949
1960
1951
1960
1985
1990
1992
2005
1992
2006
1993
1976
1986
1974
1973
1987
1994
1992
1994
2012
1980
1982
1964
1963
2004
1942
1873
1858
2041
2606
3392
3957
4095
4048
3438
2875
2273
1971
1817
1775
1776
1772
1746
1752
1760
1779
1798
1819
1781
1799
1789
1783
1805
1820
1821
1817
1832
1832
1839
1840
1836
1833
1824
1836
1857
1865
1857
1852
1847
1861
1873
1885
1886
1901
1908
1930
1948
1961
1978
1994
1993
1996
1998
2001
1970
1973
1949
1937
1937
1936
1922
1904
1935
1917
1928
1938
1909
1922
1921
1922
1911
1928
1905
1920
1916
1918
1919
1917
1917
1929
1918
1925
1918
1925
1938
1932
1933
1932
1925
1928
1956
1953
1948
1947
1945
1965
1958
1955
1944
1952
1949
1959
1959
1956
1959
1958
1960
1958
1971
1970
1954
1971
1955
1967
1964
1962
1960
1964
1960
1978
1963
1959
1962
1956
1956
1943
1943
1955
1981
1998
2006
2015
1999
2013
2015
2006
1984
1981
1988
1994
2001
2003
1976
2000
2009
1984
1974
1975
1993
1973
1913
1868
1980
2422
3179
3824
4095
4095
3579
3038
2450
2057
1871
1803
1786
1787
1793
1768
1765
1784
1808
1806
1841
1822
1808
1819
1820
1825
1823
1840
1831
1839
1849
1843
1847
1843
1853
1861
1847
1859
1852
1859
1851
1860
1856
1879
1865
1892
1899
1917
1923
1944
1967
1965
1993
1980
1982
1987
1982
1969
1966
1943
1930
1939
1922
1921
1926
1910
1916
1925
1922
1918
1914
1915
1918
1917
1925
1924
1930
1918
1915
1923
1915
1927
1925
1925
1910
1920
1934
1942
1938
1943
1947
1949
1947
1934
1932
1943
1930
1969
1960
1957
1969
1958
1955
1961
1980
1948
1963
1964
1949
1964
1984
1971
1963
1962
1965
1965
1973
1974
1967
1971
1970
1975
1964
1966
1975
1953
1975
1988
1996
2007
2013
2014
2012
2032
2013
2005
1990
1997
2009
2020
2015
2014
2016
2012
2020
1994
1987
1981
2011
1954
1898
1896
2146
2781
3496
3997
4095
3745
3223
2746
2213
1960
1852
1784
1813
1842
1796
1779
1792
1839
1851
1845
1841
1832
1842
1839
1836
1828
1837
1851
1875
1863
1891
1887
1889
1889
1882
1898
1911
1916
1925
1917
1920
1919
1942
1955
1959
1982
1990
1985
2017
2020
2038
2054
2063
2067
2068
2057
2047
2026
2019
2015
1990
1974
1977
1956
1950
1955
1955
1958
1971
1951
1964
1953
1957
1963
1954
1959
1978
1956
1969
1958
1948
1974
1977
1967
1964
1967
1979
1977
1971
1979
1975
1988
1993
1980
1979
1976
1985
1970
1992
1986
1976
1995
1995
1992
1997
1994
1984
1984
2004
1986
1993
1980
1994
2009
2026
2041
2041
2034
2051
2036
2019
2015
2008
2022
2038
2034
2049
2024
2016
2029
2034
2005
2011
2038
2000
1955
1925
2129
2756
3449
3935
4087
3649
3115
2714
2246
2000
1875
1828
1832
1857
1850
1832
1831
1883
1883
1861
1877
1895
1876
1899
1914
1914
1909
1907
1921
1918
1946
1950
1942
1957
1950
1941
1948
1968
1978
1987
2000
1996
2007
2021
2025
2042
2038
2066
2079
2099
2110
2108
2099
2115
2099
2078
2067
2048
2010
2010
1994
1975
1974
1974
1970
1977
1992
1972
1968
1976
1966
1982
1975
1978
1968
1967
1977
1977
1978
1984
1981
1975
1978
1978
1974
1991
1984
1975
1987
1976
1970
1986
1979
1990
1989
1995
1993
2000
1990
1978
1977
1976
1983
1988
1990
2006
2018
2021
2030
2049
2031
2042
2020
1992
1979
1982
2005
2032
2035
2024
2018
2023
2031
2015
1989
1996
1990
1953
1918
1941
2328
3049
3689
4095
4061
3487
3006
2518
2111
1918
1828
1828
1811
1845
1806
1801
1829
1861
1869
1857
1868
1867
1866
1876
1878
1889
1902
1908
1918
1903
1881
1913
1900
1924
1943
1921
1907
1942
1952
1952
2001
1959
1966
1991
2009
2021
2042
2056
2062
2085
2101
2103
2081
2075
2060
2037
2017
2010
1999
1983
1971
1964
1958
1956
1959
1948
1947
1959
1953
1950
1965
1955
1958
1964
1970
1967
1967
1958
1958
1954
1951
1955
1966
1964
1985
1955
1965
1966
1962
1969
1983
1988
1983
1996
1973
1979
1986
1987
1998
1989
2004
1981
1995
1990
1978
1984
1989
1999
1991
2001
2020
2014
2041
2045
2045
2035
2003
2016
1995
1997
2031
2009
2033
2021
2006
2032
2033
2026
1999
2012
1998
1934
1902
1960
2374
3115
3781
4095
4095
3573
3081
2539
2100
1930
1829
1837
1849
1838
1816
1827
1848
1875
1860
1858
1876
1885
1896
1870
1897
1898
1896
1921
1915
1901
1927
1914
1916
1916
1912
1913
1924
1929
1931
1931
1944
1939
1967
1966
1978
1997
2002
2026
2037
2047
2062
2055
2066
2054
2030
2030
2010
2003
2010
1971
1981
1971
1976
1967
1982
1969
1971
1969
1981
1970
1972
1978
1985
1985
1999
1990
1996
1985
1978
2010
2005
2008
2013
2005
2019
2027
2024
2033
2039
2037
2049
2037
2044
2047
2056
2055
2082
2083
2067
2073
2080
2084
2092
2085
2088
2084
2097
2099
2115
2109
2114
2119
2117
2110
2104
2127
2122
2131
2130
2098
2104
2108
2122
2117
2158
2165
2172
2181
2180
2167
2167
2175
2164
2146
2142
2157
2173
2182
2183
2171
2173
2154
2143
2129
2167
2145
2086
2025
2096
2450
3182
3883
4095
4095
3852
3262
2677
2226
2035
1947
1947
1926
1926
1907
1915
1926
1935
1950
1956
1953
1960
1956
1965
1967
1974
1969
1991
1981
1995
1981
1984
1976
1986
1995
2002
1992
2002
2001
1996
2009
2009
2022
2038
2040
2043
2068
2076
2105
2115
2126
2138
2138
2131
2116
2120
2100
2104
2097
2082
2080
2067
2064
2054
2043
2042
2038
2038
2045
2037
2021
2037
2035
2026
2036
2036
2014
2021
2025
2020
2005
2027
2024
2026
2039
2021
2023
2039
2026
2033
2034
2033
2040
2034
2040
2031
2041
2039
2040
2046
2039
2050
2047
2058
2052
2045
2057
2060
2057
2065
2056
2058
2064
2058
2055
2063
2062
2061
2061
2055
2053
2062
2068
2067
2069
2052
2056
2051
2051
2047
2048
2057
2081
2074
2095
2091
2078
2109
2088
2084
2056
2057
2058
2072
2095
2071
2073
2080
2047
2058
2056
2057
2079
2025
1956
1942
2155
2708
3497
4026
4095
4016
3441
2891
2332
2032
1900
1858
1861
1866
1843
1845
1855
1872
1889
1883
1869
1911
1901
1895
1898
1900
1908
1918
1938
1904
1921
1927
1927
1931
1934
1931
1941
1932
1940
1936
1941
1941
1956
1947
1953
1956
1973
1978
1994
2014
2024
2046
2047
2062
2058
2069
2062
2038
2045
2025
2018
2010
2006
1987
1989
1991
1990
1991
1997
1973
1986
1989
1999
1983
2000
1982
1969
2008
1993
1997
2000
1983
2001
2001
1992
1997
2012
2008
2022
2017
2010
2020
2021
2018
2024
2020
2028
2012
2027
2023
2039
2027
2039
2022
2021
2049
2030
2033
2023
2028
2036
2036
2039
2018
2036
2033
2034
2026
2030
2033
2031
2031
2051
2032
2040
2040
2029
2013
2017
2023
2022
2044
2049
2056
2056
2073
2077
2071
2077
2042
2041
2022
2050
2060
2057
2064
2063
2067
2069
2055
2034
2059
2047
1987
1941
2002
2383
3098
3777
4095
4095
3669
3150
2575
2138
1971
1870
1873
1882
1861
1837
1850
1860
1874
1877
1885
1885
1868
1885
1873
1892
1896
1902
1903
1900
1896
1908
1909
1917
1912
1924
1905
1907
1912
1915
1907
1918
1935
1925
1930
1937
1952
1948
1974
1978
1988
2014
2027
2036
2037
2036
2037
2030
2009
2025
2000
1994
1979
1977
1966
1967
1970
1968
1979
1975
1974
1981
1953
1963
1970
1973
1984
1975
1965
1973
1972
1971
1981
1986
1967
1980
1979
1977
1983
1988
1991
2000
1999
2004
1994
1995
2008
1990
1994
2003
1982
2003
2003
2004
2002
1995
2006
1995
2000
1995
2008
1994
2021
2001
1991
2018
1988
2006
2005
2014
1985
2009
2005
1988
2016
1996
1992
2022
2021
2027
2049
2058
2047
2048
2034
2019
2022
2021
2028
2043
2058
2053
2044
2053
2032
2031
2019
2044
2014
1970
1930
1977
2376
3072
3725
4095
4095
3622
3122
2571
2121
1942
1848
1838
1837
1835
1806
1819
1845
1852
1856
1858
1862
1871
1867
1870
1878
1879
1890
1898
1904
1894
1904
1906
1897
1911
1911
1914
1908
1913
1922
1922
1931
1940
1944
1946
1955
1956
1973
1986
2005
2018
2039
2039
2050
2058
2055
2054
2049
2034
2024
2021
2008
1994
2000
1998
1995
1967
1980
1973
1973
1982
1986
1973
1971
1988
1988
1994
1996
1965
1987
1979
1973
1992
1995
1998
2007
2015
2013
2015
2031
2023
2019
2018
2004
2007
2018
2013
2002
2019
2026
2027
2045
2040
2036
2034
2050
2032
2046
2053
2054
2037
2058
2045
2072
2070
2073
2064
2048
2071
2069
2087
2082
2081
2107
2105
2118
2120
2136
2134
2131
2111
2107
2096
2123
2142
2150
2155
2147
2151
2173
2170
2146
2124
2153
2122
2086
2066
2294
2901
3575
4046
4095
3738
3201
2842
2390
2130
2029
1942
1971
1995
1978
1946
1961
2003
2018
1994
1997
1992
2003
2003
2014
2016
2013
2034
2030
2035
2033
2026
2044
2039
2052
2039
2050
2049
2059
2056
2079
2077
2070
2095
2098
2097
2107
2136
2133
2157
2177
2163
2177
2174
2185
2160
2157
2125
2111
2098
2091
2073
2069
2069
2066
2066
2058
2049
2057
2069
2069
2063
2071
2061
2060
2063
2084
2081
2082
2078
2078
2081
2085
2083
2079
2071
2085
2090
2097
2091
2084
2093
2105
2080
2091
2099
2102
2111
2102
2092
2085
2082
2096
2094
2113
2116
2138
2142
2141
2160
2158
2161
2160
2143
2118
2098
2120
2127
2144
2150
2144
2129
2147
2133
2128
2080
2119
2096
2053
2036
2200
2802
3511
4033
4095
3828
3238
2858
2374
2081
1988
1879
1913
1948
1939
1905
1937
1973
1981
1974
1966
1966
1986
1977
1987
1987
1989
2011
1995
1995
2007
2003
2014
2031
2039
2020
2033
2037
2028
2034
2056
2072
2072
2094
2086
2089
2123
2133
2152
2166
2183
2180
2177
2163
2162
2132
2117
2105
2078
2068
2052
2039
2039
2039
2025
2027
2031
2027
2041
2042
2029
2036
2041
2036
2037
2030
2026
2036
2046
2044
2037
2046
2044
2050
2033
2036
2048
2037
2061
2044
2050
2048
2059
2056
2059
2022
2035
2046
2050
2081
2071
2082
2073
2090
2089
2094
2072
2039
2051
2058
2059
2103
2078
2062
2071
2051
2061
2075
2057
2049
2067
2008
1983
2013
2304
3029
3698
4095
4095
3578
3037
2582
2171
2005
1896
1875
1874
1910
1893
1885
1898
1929
1944
1922
1931
1932
1930
1940
1963
1967
1970
1963
1949
1972
1978
1997
1986
1997
1988
1999
2002
2004
2010
2017
2033
2047
2050
2071
2079
2109
2123
2123
2162
2164
2174
2180
2150
2132
2123
2103
2074
2075
2045
2037
2022
2030
2015
2020
2012
2021
2021
2007
2011
2012
2010
2030
2004
2017
2020
1998
2025
2017
2017
2042
2024
2047
2030
2030
2026
2035
2027
2023
2039
2033
2023
2029
2037
2020
2024
2021
2025
2039
2064
2075
2057
2083
2076
2066
2077
2054
2042
2033
2022
2030
2047
2063
2047
2050
2038
2042
2040
2036
2039
2048
1991
1957
1953
2245
2949
3650
4095
4095
3704
3126
2626
2153
1956
1878
1835
1850
1861
1852
1836
1866
1872
1884
1882
1893
1900
1897
1894
1894
1913
1928
1928
1935
1943
1942
1955
1954
1936
1963
1945
1952
1960
1965
1978
1992
2002
2011
2016
2036
2052
2087
2107
2115
2117
2118
2116
2112
2111
2084
2061
2041
2023
2016
1991
1986
1980
1977
1980
1986
1963
1976
1960
1965
1966
1963
1970
1960
1966
1963
1964
1965
1959
1976
1962
1957
1957
1962
1957
1962
1981
1980
1976
1981
1984
1984
1992
1994
1997
2010
2015
2000
1987
1993
1980
1996
1998
2002
1987
1995
1985
1979
1973
1971
1967
1987
2009
2003
2007
2020
2014
2012
2005
1993
1978
1974
1986
1996
1994
1995
1999
1993
1997
1995
1975
1971
1989
1969
1907
1876
2009
2523
3286
3885
4095
4005
3387
2883
2315
1970
1849
1784
1779
1804
1801
1776
1795
1814
1811
1814
1813
1808
1825
1840
1820
1847
1858
1830
1847
1854
1839
1858
1874
1872
1876
1899
1871
1862
1887
1887
1884
1898
1925
1912
1993
1949
1944
1983
1965
2017
2022
2037
2013
2041
2032
2015
2006
1954
1940
1935
1912
1923
1908
1899
1907
1886
1885
1879
1868
1887
1878
1866
1883
1871
1875
1875
1879
1853
1877
1883
1872
1867
1884
1881
1855
1889
1876
1873
1871
1896
1888
1884
1898
1885
1897
1909
1910
1893
1901
1912
1904
1905
1916
1901
1914
1908
1911
1899
1920
1901
1915
1918
1893
1917
1905
1909
1916
1910
1914
1905
1896
1889
1897
1894
1898
1890
1882
1870
1872
1868
1877
1892
1905
1896
1912
1912
1916
1918
1916
1901
1883
1894
1902
1906
1915
1910
1910
1919
1911
1882
1876
1907
1892
1812
1798
1865
2277
3052
3716
4095
4095
3545
2983
2394
1977
1791
1724
1712
1709
1699
1684
1677
1691
1721
1723
1735
1748
1724
1717
1724
1727
1733
1759
1766
1757
1766
1775
1768
1772
1764
1770
1751
1762
1784
1786
1786
1795
1786
1799
1812
1832
1831
1852
1862
1873
1898
1916
1931
1931
1908
1914
1908
1905
1887
1889
1878
1874
1853
1849
1839
1841
1840
1847
1828
1840
1859
1864
1845
1836
1848
1841
1844
1845
1845
1854
1850
1848
1843
1850
1853
1858
1856
1854
1857
1859
1855
1858
1863
1862
1860
1870
1878
1878
1869
1871
1866
1869
1874
1892
1878
1881
1882
1888
1876
1896
1877
1890
1883
1883
1898
1888
1902
1900
1900
1903
1908
1911
1908
1915
1898
1909
1906
1916
1902
1897
1898
1930
1937
1940
1963
1946
1977
1971
1939
1937
1907
1927
1954
1972
1952
1943
1948
1952
1973
1941
1895
1959
1933
1882
1826
1879
2229
2968
3673
4092
4095
3649
3090
2516
2048
1832
1746
1755
1749
1751
1716
1715
1731
1754
1767
1776
1783
1777
1768
1784
1797
1797
1799
1813
1795
1814
1816
1813
1823
1834
1838
1844
1814
1829
1838
1840
1861
1848
1855
1868
1885
1884
1896
1916
1927
1948
1954
1978
1960
1984
1985
1966
1956
1948
1946
1937
1922
1920
1916
1905
1932
1908
1899
1914
1909
1919
1917
1921
1925
1898
1906
1916
1907
1917
1915
1919
1899
1921
1922
1917
1922
1912
1927
1932
1934
1946
1924
1929
1936
1945
1953
1955
1946
1937
1943
1954
1948
1950
1952
1950
1950
1965
1971
1958
1963
1955
1950
1967
1968
1967
1983
1982
1970
1968
1974
1975
1982
1980
1979
1974
1980
1981
1978
1975
1969
1964
1969
1991
2002
2004
2015
2019
2020
2019
2031
2003
1982
1993
1987
2013
2017
2008
2002
2008
2005
1985
1988
1996
2012
1936
1868
1884
2170
2851
3587
4055
4095
3786
3238
2684
2163
1940
1826
1813
1812
1808
1792
1791
1805
1826
1827
1825
1833
1833
1844
1832
1844
1842
1858
1865
1870
1869
1880
1876
1886
1875
1883
1889
1884
1891
1897
1895
1911
1905
1910
1916
1904
1942
1949
1952
1969
1976
1990
2006
2018
2018
2034
2025
2018
2002
1993
1988
1989
1968
1966
1958
1963
1950
1963
1948
1942
1955
1947
1945
1960
1959
1969
1973
1962
1944
1954
1959
1957
1958
1976
1959
1964
1978
1973
1974
1982
1972
1974
1977
1986
1984
1997
1998
1985
1993
1996
1978
1993
1985
1986
1996
2005
2001
2007
1994
1987
2003
2019
2024
2026
2005
2008
2006
2011
2020
2019
2018
2018
2005
2018
2024
2020
2021
2027
2028
2026
2031
2026
1999
2015
2018
2015
2017
2011
2018
2037
2048
2059
2045
2069
2065
2063
2056
2027
2027
2041
2034
2066
2046
2034
2044
2039
2042
2030
2021
2056
1997
1934
1906
2125
2664
3416
3964
4095
3933
3379
2897
2309
2023
1888
1836
1856
1851
1830
1818
1841
1858
1857
1853
1864
1879
1878
1864
1884
1874
1882
1887
1891
1885
1893
1895
1910
1910
1905
1915
1901
1907
1914
1910
1921
1916
1925
1936
1948
1956
1961
1939
1968
1969
1991
2015
2013
2018
2035
2048
2039
2047
2027
2013
2014
2002
1983
1987
1980
1971
1963
1962
1967
1962
1971
1971
1966
1956
1970
1951
1964
1979
1968
1966
1988
1954
1979
1997
1990
1990
1981
1981
1981
1984
2005
1995
1992
2007
1980
2002
2008
2010
2015
2012
2013
2010
2006
2016
2016
2017
2014
2000
2021
2012
2014
2022
2022
2001
2020
2031
2023
2043
2026
2013
2009
2020
2022
2035
2040
2037
2025
2024
2029
2009
2015
2020
2017
2046
2055
2057
2078
2066
2073
2077
2063
2044
2051
2046
2043
2055
2048
2058
2048
2063
2048
2044
2027
2044
2051
1987
1934
1948
2260
2923
3598
4037
4095
3687
3193
2676
2175
1976
1872
1850
1863
1873
1834
1831
1857
1875
1874
1884
1875
1889
1886
1902
1889
1902
1901
1897
1918
1924
1923
1913
1922
1928
1927
1929
1934
1924
1929
1925
1922
1932
1932
1954
1944
1964
1957
1976
1989
2002
2015
2015
2036
2054
2053
2054
2033
2027
2029
2027
1996
2008
1987
1975
1989
1978
1968
1976
1975
1980
1982
1976
1965
1978
1973
1976
1970
1973
1973
1981
1970
1990
1988
1989
2000
1989
1994
1997
1997
2005
1989
1998
1996
2013
2012
2010
2007
2009
2005
2018
2012
2015
2008
2005
2008
2008
2017
2016
2017
2031
2027
2018
2019
2016
2024
2040
2006
2025
2008
2022
2015
2030
2013
2018
2046
2028
2036
2015
2022
2023
2015
2031
2029
2048
2047
2063
2056
2075
2065
2046
2030
2025
2033
2053
2060
2055
2028
2030
2051
2035
2033
2008
2032
2025
1950
1907
2006
2477
3214
3820
4095
4032
3493
3021
2443
2078
1907
1825
1842
1852
1832
1808
1818
1839
1851
1853
1862
1867
1869
1862
1855
1868
1872
1877
1891
1896
1885
1887
1894
1904
1894
1894
1891
1897
1900
1914
1897
1895
1907
1905
1913
1931
1911
1928
1948
1945
1979
1984
1998
2005
2032
2025
2003
2030
1987
1987
1977
1982
1962
1967
1967
1966
1960
1962
1961
1957
1949
1954
1954
1959
1956
1957
1945
1955
1943
1964
1973
1959
1979
1952
1955
1971
1966
1973
1983
1973
1979
1979
1967
1987
1981
1980
1972
1987
1992
1983
1988
1995
1978
2000
2001
1994
1999
1995
1996
2008
1994
2008
2008
2007
2002
1997
2001
2012
2002
2013
2003
2013
2000
2009
2014
1999
2003
2002
2022
2033
2031
2045
2047
2054
2064
2041
2030
2017
2019
2021
2039
2042
2046
2032
2034
2030
2016
2004
2029
2022
1958
1910
1966
2377
3059
3716
4095
4088
3561
3083
2540
2104
1935
1841
1833
1829
1841
1801
1808
1839
1855
1852
1859
1862
1864
1856
1870
1869
1870
1876
1888
1888
1886
1877
1876
1896
1888
1910
1900
1902
1897
1891
1902
1890
1904
1896
1905
1905
1926
1922
1942
1958
1966
1979
1996
2007
2018
2017
2023
2014
2008
1991
1983
1980
1962
1973
1971
1958
1964
1959
1962
1964
1948
1950
1956
1955
1965
1966
1977
1972
1969
1965
1966
1964
1969
1971
1980
1981
1996
1979
1985
1994
1992
1986
2002
1986
1985
2003
1996
1998
2008
2000
2014
2007
2014
2001
2008
2007
2007
2013
2028
2030
2016
2009
2013
2016
2027
2026
2028
2020
2018
2023
2029
2026
2014
2030
2017
2024
2035
2038
2055
2046
2069
2055
2074
2069
2063
2045
2038
2029
2039
2067
2054
2059
2051
2038
2064
2031
2012
2045
2017
1970
1955
2045
2543
3244
3800
4095
3919
3393
2957
2421
2076
1918
1841
1856
1883
1856
1829
1839
1877
1889
1887
1882
1888
1896
1895
1897
1912
1910
1915
1910
1920
1923
1930
1949
1955
1936
1936
1939
1928
1942
1948
1946
1961
1955
1969
1976
1988
1988
1982
2014
2012
2053
2067
2055
2074
2087
2088
2041
2065
2026
2027
2021
2012
1985
1990
1986
1984
1967
1971
1984
1986
1991
1976
1975
1976
1971
1974
1984
1985
1993
1993
1987
1986
1987
1994
2001
2002
2008
2006
1994
2011
2006
2010
2007
2021
2007
2010
2008
2020
2006
2013
2014
2005
2019
2023
2029
2022
2012
2007
2004
2018
2015
2005
2018
2041
2044
2067
2065
2070
2062
2059
2048
2036
2028
2041
2054
2063
2061
2044
2049
2054
2051
2016
2016
2030
2002
1972
1977
2284
2925
3538
3960
3992
3492
3057
2651
2207
1982
1880
1833
1852
1884
1850
1827
1872
1903
1885
1894
1904
1893
1903
1906
1906
1913
1939
1931
1939
1943
1940
1950
1951
1978
1954
1970
1982
1963
1981
1977
1980
1995
2003
1991
2014
2004
2036
2062
2072
2071
2094
2106
2105
2106
2079
2068
2061
2053
2028
2019
1996
1997
1976
1976
1970
1964
1973
1984
1986
1962
1985
1976
1977
1998
1979
1973
1986
1979
1973
1983
1989
2004
2000
1999
1979
1976
1991
1994
1996
1994
1984
1995
2009
1991
1998
2001
1999
1998
1991
1992
2006
2010
2014
2008
1995
1983
1996
1992
1988
2000
2000
2044
2031
2047
2039
2038
2050
2054
2012
2024
2017
2013
2032
2046
2041
2034
2040
2034
2032
2017
2014
2039
1990
1944
1922
2124
2738
3437
3946
4095
3770
3240
2796
2285
2001
1884
1816
1839
1862
1839
1811
1835
1850
1862
1862
1874
1875
1876
1878
1890
1893
1903
1902
1909
1918
1923
1925
1940
1939
1940
1942
1946
1952
1955
1952
1968
1964
1974
1989
2003
2014
2040
2040
2058
2069
2091
2095
2108
2091
2075
2061
2050
2042
2019
2003
2000
1984
1981
1990
1977
1972
1973
1962
1967
1973
1988
1963
1970
1972
1968
1960
1992
1972
1967
1991
1981
1969
1982
1985
1984
1981
1989
1984
1991
1999
1998
1995
2001
1999
1997
2001
2002
2004
2011
1983
1997
1994
1997
2003
2006
2002
2005
2004
2011
1994
1988
2004
2005
1989
1991
2000
2000
2020
2036
2033
2044
2051
2046
2040
2042
2027
2015
2013
2024
2041
2049
2038
2037
2020
2029
2023
1999
2013
2034
1988
1942
1930
2167
2775
3512
4007
4095
3815
3274
2773
2238
1979
1851
1809
1815
1820
1817
1800
1816
1825
1845
1835
1858
1868
1854
1847
1865
1873
1883
1873
1887
1883
1891
1903
1895
1898
1913
1895
1904
1916
1919
1920
1926
1943
1946
1967
1970
1970
1994
2013
2027
2032
2060
2041
2061
2068
2053
2049
2017
2008
1990
1996
1979
1957
1952
1934
1947
1943
1958
1940
1943
1948
1939
1932
1947
1941
1938
1945
1938
1937
1953
1943
1936
1950
1952
1953
1953
1944
1956
1954
1967
1965
1960
1965
1959
1975
1977
1969
1963
1967
1976
1981
1980
1969
1979
1967
1985
1978
1976
1970
1981
1992
1988
1995
1982
1983
1985
1988
1982
1985
1985
1983
1990
1989
1996
1974
1986
1981
2003
2018
2006
2030
2031
2039
2035
2021
1994
1987
2003
2019
2033
2030
2017
2026
2030
2019
1999
1991
2032
1981
1918
1889
2038
2571
3328
3917
4095
4052
3497
2971
2378
2026
1881
1830
1822
1832
1786
1784
1798
1831
1825
1821
1831
1825
1856
1851
1843
1848
1863
1857
1871
1866
1858
1890
1882
1880
1888
1889
1884
1895
1891
1897
1910
1905
1910
1928
1947
1967
1963
1988
1993
2000
2030
2041
2036
2046
2041
2019
2010
2003
1978
1980
1972
1966
1953
1964
1945
1943
1945
1947
1946
1945
1949
1943
1945
1943
1942
1958
1940
1949
1945
1950
1961
1953
1949
1949
1960
1955
1964
1960
1958
1969
1957
1976
1962
1971
1966
1977
1974
1983
1959
1984
1971
1968
1987
1976
1976
1981
1983
1975
1985
1987
1974
1991
1984
1987
1995
1998
1994
1987
2001
2000
1997
2010
2002
2004
2009
2017
1985
2007
1982
1977
2011
2001
2021
2025
2028
2042
2038
2045
2041
2045
2032
2020
2012
2022
2040
2030
2030
2022
2045
2045
1994
1998
2001
2012
1954
1906
1930
2286
3019
3713
4095
4095
3725
3185
2611
2144
1937
1840
1825
1839
1821
1793
1800
1814
1833
1844
1847
1848
1846
1850
1837
1845
1858
1863
1871
1873
1865
1882
1880
1888
1881
1887
1880
1894
1888
1895
1882
1895
1921
1933
1940
1939
1951
1963
1986
2002
2012
2027
2041
2034
2021
2027
2015
2008
1998
1985
1967
1961
1942
1953
1916
1933
1946
1934
1954
1944
1943
1950
1940
1934
1930
1943
1949
1941
1920
1949
1922
1936
1955
1933
1938
1941
1943
1946
1946
1947
1940
1964
1952
1973
1977
1958
1965
1956
1963
1965
1960
1953
1963
1965
1972
1974
1955
1975
1965
1976
1981
1976
1979
1974
1975
1985
1980
1977
1972
1989
1975
1995
2004
1994
1969
1990
2004
1988
2008
1994
1984
1982
2014
1982
1981
2011
2005
2026
2037
2041
2030
2022
2023
2009
1980
2000
1999
2014
2034
2028
2022
2038
2015
2003
2001
2007
2040
1947
1895
1920
2238
2917
3605
4071
4095
3736
3211
2656
2158
1939
1831
1822
1817
1821
1793
1790
1805
1834
1826
1833
1838
1828
1844
1844
1844
1845
1864
1872
1867
1872
1877
1880
1875
1907
1901
1897
1918
1876
1887
1896
1910
1912
1922
1937
1944
1961
1980
1986
2001
2009
2033
2041
2036
2050
2048
2024
2025
1986
1974
1968
1959
1955
1953
1949
1928
1938
1947
1946
1946
1945
1945
1943
1947
1937
1950
1943
1948
1935
1946
1945
1936
1954
1949
1946
1956
1942
1955
1955
1967
1966
1969
1962
1985
1962
1984
1983
1980
1983
1987
1969
1958
1997
1985
1986
1985
1981
1988
2003
2000
1983
1996
1984
1988
1992
1999
1998
1993
1991
2002
2000
2012
2001
2012
2010
2020
2003
2000
2002
1994
1999
2007
2001
2015
2044
2054
2052
2045
2064
2043
2045
2062
1994
2030
2022
2022
2046
2035
2028
2028
2024
2006
2010
2042
1989
1939
1916
2091
2617
3355
3880
4095
3910
3367
2888
2335
2020
1876
1817
1826
1830
1818
1802
1811
1817
1851
1844
1853
1859
1857
1840
1866
1856
1866
1873
1881
1876
1902
1872
1862
1900
1892
1898
1902
1906
1903
1912
1916
1912
1920
1934
1947
1948
1957
1981
1992
1987
2022
2009
2026
2029
2039
2019
2015
2000
1987
1974
1967
1958
1956
1950
1931
1937
1926
1928
1938
1929
1950
1923
1914
1931
1928
1947
1945
1933
1948
1926
1946
1951
1934
1955
1943
1939
1960
1949
1959
1958
1962
1963
1970
1966
1968
1959
1966
1975
1982
1994
1982
1973
1990
1978
1977
1984
1988
1980
1991
1988
1986
1980
1996
1997
1992
1984
1981
1982
1997
1984
1991
2000
1994
2005
1995
1988
1996
2000
2011
1992
2002
2000
1992
2000
1995
1994
1990
2011
2024
2029
2039
2035
2046
2033
2036
2012
2011
1992
2015
2034
2032
2037
2018
2035
2019
2003
1991
2025
2012
1949
1887
1975
2412
3131
3770
4095
4081
3554
3065
2500
2089
1926
1828
1818
1837
1809
1796
1804
1822
1840
1832
1856
1856
1844
1845
1853
1854
1848
1867
1877
1871
1886
1885
1881
1887
1921
1881
1889
1899
1893
1902
1903
1909
1903
1916
1935
1943
1946
1968
1975
1997
2002
2021
2036
2035
2033
2040
2031
2013
2009
1987
1988
1979
1976
1957
1953
1956
1957
1939
1948
1949
1931
1959
1956
1962
1961
1949
1951
1951
1959
1960
1968
1950
1968
1952
1971
1976
1962
1985
1986
1973
1979
1974
1976
1982
1981
1988
1991
1995
2001
1976
1994
1991
1992
2001
2003
1998
1999
1996
2007
2003
2001
2002
2006
2015
2011
2009
2010
2003
2015
2013
2022
2014
2019
2019
2024
2032
2029
2013
2030
2025
2029
2021
2031
2013
2019
2024
2016
2027
2038
2052
2060
2056
2069
2077
2078
2079
2050
2019
2032
2042
2071
2071
2073
2051
2048
2042
2052
2015
2056
2044
1973
1933
1994
2387
3094
3740
4095
4095
3644
3149
2590
2143
1958
1852
1869
1859
1851
1816
1823
1850
1865
1874
1872
1866
1888
1874
1879
1876
1897
1896
1914
1907
1909
1890
1905
1936
1932
1945
1918
1919
1919
1930
1927
1936
1942
1934
1959
1948
1979
1977
1991
2007
2025
2040
2045
2059
2065
2062
2064
2041
2023
2020
2010
1985
1994
1981
1966
1971
1965
1973
1968
1965
1980
1952
1967
1970
1966
1966
1973
1964
1982
1972
1966
1969
1967
1976
1977
1984
1979
1973
1987
1979
1986
1989
1987
1988
1997
1988
1987
2002
2000
2003
2003
1997
2003
2006
2015
1996
2027
1997
2006
2015
2016
2019
2012
2011
2011
2005
2024
2037
2027
2031
2016
2018
2015
2043
2019
2014
2035
2007
2021
2026
2023
2004
2002
2009
2006
2031
2048
2050
2068
2058
2062
2059
2046
2040
2027
2021
2038
2044
2050
2032
2039
2030
2031
2032
2010
2034
2030
1961
1924
1986
2379
3089
3713
4095
4093
3590
3125
2565
2123
1961
1850
1871
1853
1852
1829
1817
1861
1861
1867
1878
1891
1894
1887
1882
1881
1894
1917
1899
1901
1917
1914
1932
1938
1930
1927
1933
1942
1943
1952
1948
1939
1962
1965
1976
1997
2004
2007
2013
2030
2039
2058
2080
2074
2081
2100
2075
2062
2063
2041
2031
2022
2004
1977
1984
1994
1990
1997
1999
1987
1993
2003
1994
1988
2005
1985
1988
1982
1988
1992
1995
1993
2003
2008
1994
2009
2010
2011
2014
2001
2012
2013
2013
2023
2016
2006
2022
2023
2031
2036
2038
2028
2032
2031
2036
2027
2046
2038
2036
2031
2052
2051
2046
2048
2044
2041
2051
2052
2041
2042
2048
2050
2058
2078
2072
2075
2096
2082
2096
2085
2081
2051
2055
2052
2066
2080
2087
2075
2067
2071
2067
2057
2049
2051
2075
2013
1983
2002
2344
3041
3628
4017
3975
3461
3051
2627
2208
1993
1893
1847
1864
1895
1868
1854
1896
1911
1909
1908
1908
1925
1927
1926
1939
1940
1945
1951
1955
1952
1981
1961
1964
1969
1977
1969
1978
1965
1970
1986
1995
1996
2013
2024
2031
2038
2055
2055
2072
2102
2106
2112
2131
2115
2105
2096
2076
2055
2049
2032
2013
1995
2007
1997
1990
1988
1986
1981
1995
1974
1985
1971
1983
1988
1995
1980
1972
1986
1987
1987
1979
1992
1986
1999
1998
1986
1996
1992
2000
1993
1996
2000
2004
2009
2011
1998
2001
2009
2011
1992
2001
1995
1997
2024
2009
1990
2018
1995
2003
1999
2013
2000
2011
2019
2012
2000
1998
2003
2015
2020
2039
2045
2038
2057
2048
2044
2042
2032
2014
2014
2010
2029
2055
2025
2043
2014
2024
2028
2030
1985
2025
2003
1963
1920
2039
2548
3253
3832
4095
3941
3380
2944
2405
2039
1896
1823
1817
1830
1842
1784
1811
1846
1860
1866
1856
1861
1870
1864
1876
1876
1888
1872
1890
1903
1898
1907
1897
1909
1909
1906
1917
1919
1917
1935
1934
1937
1959
1961
1961
1965
1982
2001
2015
2023
2047
2057
2061
2064
2061
2038
2043
2039
2026
2008
1986
1971
1967
1955
1951
1953
1945
1940
1950
1954
1941
1930
1944
1938
1942
1942
1935
1932
1939
1937
1931
1944
1942
1958
1931
1940
1950
1951
1956
1955
1946
1944
1948
1947
1965
1959
1960
1965
1964
1963
1967
1970
1956
1960
1955
1965
1970
1972
1968
1961
1964
1962
1963
1977
1979
1975
1961
1983
1974
1984
1982
1976
1982
1970
1977
1974
1975
1974
2003
2015
2004
2013
2018
2023
2015
2010
1986
1978
1988
2004
2005
2017
2011
2009
1987
1997
1985
1966
2002
1989
1904
1860
1944
2335
3073
3729
4095
4095
3606
3095
2525
2083
1892
1807
1779
1797
1783
1756
1778
1785
1816
1800
1813
1821
1818
1820
1811
1828
1830
1846
1850
1857
1850
1855
1860
1863
1859
1855
1854
1873
1872
1878
1864
1873
1881
1896
1897
1915
1918
1929
1955
1970
1973
1994
2002
2013
2019
2014
1999
1994
1979
1964
1954
1944
1943
1940
1927
1931
1925
1928
1928
1927
1919
1904
1923
1925
1938
1946
1911
1929
1904
1925
1919
1929
1917
1925
1932
1931
1939
1936
1937
1938
1937
1927
1941
1954
1952
1948
1939
1946
1952
1966
1941
1945
1932
1935
1970
1957
1961
1960
1950
1960
1962
1969
1951
1974
1957
1969
1978
1982
1975
1963
1962
1973
1971
1972
1977
1976
1984
1982
1976
1970
1964
1970
1969
1973
1970
1978
1995
2013
2006
2008
2027
2023
2016
1997
1979
1973
2003
2020
1991
2018
1981
2000
2004
1987
1961
1984
2007
1948
1896
1874
2116
2744
3477
3985
4095
3872
3319
2792
2215
1969
1823
1789
1809
1800
1784
1777
1795
1810
1803
1805
1814
1830
1827
1819
1826
1830
1836
1853
1850
1872
1860
1865
1859
1862
1862
1866
1869
1868
1866
1876
1882
1885
1887
1887
1898
1911
1934
1940
1953
1969
1980
2005
2015
2016
2021
2008
2014
1997
1992
1973
1957
1965
1952
1951
1941
1949
1930
1949
1942
1946
1934
1937
1945
1937
1945
1947
1944
1953
1952
1937
1947
1943
1944
1947
1951
1957
1960
1954
1963
1958
1962
1964
1962
1967
1969
1971
1979
1989
1979
1982
1987
1970
1968
1985
1981
1991
1993
1981
1987
1997
1995
1982
1997
1989
1984
2006
2000
1986
2002
1986
2001
2011
1999
1996
1992
1997
2006
2001
2001
1996
1986
1993
1998
2010
2030
2028
2044
2054
2055
2029
2028
2003
1997
2007
2033
2035
2030
2046
2042
2036
2026
2006
1999
2048
2015
1959
1932
2057
2580
3315
3896
4095
4008
3442
2971
2391
2054
1900
1830
1836
1843
1826
1818
1820
1848
1852
1862
1860
1857
1863
1854
1873
1884
1878
1889
1885
1896
1907
1919
1914
1918
1909
1916
1919
1923
1932
1934
1942
1945
1946
1960
1962
1979
1975
2011
2021
2038
2052
2065
2063
2078
2084
2086
2074
2045
2041
2028
2020
2011
2003
1979
1978
1997
1968
1992
1975
1966
1971
1980
1985
1991
1980
1987
1981
1977
1976
1992
1982
1980
1989
1980
1981
1990
1985
1995
2002
1997
2000
2005
2004
2007
2012
2011
2000
2020
2006
2011
2009
2013
2006
2033
2004
2016
2017
2019
2024
2023
2022
2028
2023
2030
2041
2023
2050
2028
2015
2030
2014
2011
2040
2062
2062
2074
2077
2087
2078
2069
2064
2025
2048
2057
2032
2077
2055
2041
2051
2055
2039
2033
2014
2046
2007
1971
1954
2188
2791
3460
3935
4068
3653
3155
2764
2292
2011
1883
1821
1834
1876
1869
1824
1858
1883
1877
1888
1889
1895
1897
1892
1913
1909
1923
1936
1941
1932
1934
1941
1946
1965
1963
1937
1964
1943
1973
1978
1983
1973
1986
2011
2012
2038
2026
2045
2057
2079
2090
2093
2098
2093
2103
2095
2070
2068
2040
2014
2029
2007
1995
1980
1994
1961
1974
1996
1995
1989
1990
1985
1972
1987
1977
1979
1978
1991
1988
1991
2001
1983
1996
1993
1999
1992
2001
1999
2004
2007
2009
2013
2011
2001
2010
2011
2021
2023
2006
2021
2025
2030
2020
2012
2011
2014
2021
2029
2032
2031
2024
2029
2035
2023
2028
2025
2025
2020
2013
2013
2031
2022
2057
2063
2058
2064
2073
2076
2058
2059
2027
2033
2042
2054
2059
2056
2051
2054
2050
2051
2034
2024
2041
2024
1965
1911
2039
2527
3260
3832
4095
4016
3460
3017
2459
2079
1919
1844
1830
1862
1856
1813
1844
1855
1872
1867
1875
1898
1890
1883
1879
1901
1898
1904
1910
1907
1922
1921
1921
1928
1925
1933
1941
1935
1936
1965
1925
1959
1960
1966
1972
1996
2007
2008
2036
2055
2068
2074
2071
2078
2068
2076
2067
2053
2045
2027
2010
1995
1986
1992
1989
1990
1984
1973
1981
1981
1976
1976
1961
1992
1970
1975
1968
1965
1965
1967
1971
1970
1978
1982
1975
1980
1976
1989
1986
1995
1994
1992
1986
1998
1985
1979
2007
1995
1989
1989
1980
1998
2007
2004
2002
1998
1991
2011
2008
2011
2016
2013
2002
2018
2010
2014
2005
2018
2006
2008
2019
2019
2022
2016
2024
2023
2010
2021
2012
2022
2013
2016
2000
2015
2033
2031
2037
2048
2057
2056
2060
2041
2020
2012
2014
2036
2043
2048
2037
2049
2042
2030
2001
2015
2030
1991
1937
1918
2100
2678
3447
3995
4095
4026
3426
2904
2327
2023
1880
1844
1835
1826
1812
1805
1803
1829
1853
1847
1861
1859
1855
1859
1858
1856
1873
1880
1883
1881
1879
1900
1894
1911
1897
1892
1897
1901
1895
1911
1900
1904
1914
1929
1944
1950
1959
1967
1990
2007
2020
2029
2042
2052
2042
2058
2011
2015
2022
2000
1999
1986
1984
1981
1968
1962
1958
1956
1988
1968
1945
1979
1947
1962
1966
1965
1947
1956
1960
1962
1953
1963
1967
1961
1971
1960
1970
1978
1972
1977
1973
1979
1983
1974
1988
1979
1983
1996
1997
1995
1996
1991
1973
1999
1997
1994
1998
2004
1981
2001
2014
2020
1995
2019
2017
2001
2023
2006
2011
2013
2030
2012
2012
2017
2015
2013
2023
2021
2020
2015
2019
2007
2010
2003
1995
2013
2014
2046
2048
2054
2049
2046
2062
2054
2048
2015
2013
2023
2032
2057
2051
2032
2043
2030
2029
2013
2050
2010
1948
1915
1969
2373
3111
3760
4095
4095
3656
3138
2549
2123
1942
1846
1851
1835
1846
1818
1821
1827
1845
1843
1863
1865
1874
1860
1871
1868
1881
1890
1887
1903
1899
1895
1897
1894
1917
1919
1913
1901
1904
1908
1918
1922
1929
1931
1942
1944
1961
1966
1974
2009
2019
2027
2040
2048
2061
2059
2065
2034
2045
2028
2009
2018
2003
2001
2003
1983
1986
1988
2000
1967
1988
1972
1973
1992
1990
1990
1982
1979
1983
1975
1987
1971
1991
1987
1992
2000
2003
1989
2007
2001
2005
2001
2000
2004
2010
2016
2000
2030
2026
2035
2029
2011
2035
2018
2036
2024
2016
2024
2025
2030
2037
2034
2034
2021
2045
2035
2035
2050
2038
2041
2040
2033
2033
2037
2045
2032
2049
2037
2041
2039
2044
2044
2036
2033
2035
2034
2048
2059
2085
2076
2077
2079
2080
2074
2072
2054
2041
2038
2057
2072
2073
2066
2066
2053
2061
2031
2045
2071
2010
1970
1970
2206
2845
3551
4027
4095
3838
3286
2791
2248
2012
1883
1853
1856
1872
1832
1823
1847
1869
1867
1870
1885
1882
1889
1880
1888
1888
1898
1913
1901
1906
1906
1908
1920
1926
1929
1921
1915
1938
1928
1934
1933
1946
1937
1960
1968
1979
1977
1998
2009
2025
2039
2045
2059
2071
2072
2062
2055
2041
2031
2032
2016
2001
2002
1985
1982
1986
1969
1971
1977
1985
1978
1969
1966
1972
1960
1976
1979
1976
1977
1971
1969
1977
1990
1987
1986
1994
1996
1995
1998
2003
1986
2000
1995
1992
2000
2006
2007
2018
2009
2003
2013
2019
2014
2014
2016
2017
2017
2016
2014
2009
2017
2030
2031
2041
2019
2018
2021
2016
2015
2021
2030
2048
2049
2058
2067
2057
2097
2069
2053
2051
2031
2030
2039
2056
2062
2054
2054
2050
2042
2045
2017
2023
2039
2005
1968
1949
2165
2770
3450
3925
4095
3728
3226
2804
2284
2015
1904
1834
1855
1862
1842
1831
1854
1874
1889
1890
1895
1891
1894
1891
1901
1906
1925
1921
1929
1942
1939
1950
1946
1940
1950
1957
1960
1961
1961
1960
1956
1981
1979
1972
1993
1994
2015
2027
2040
2044
2070
2080
2091
2082
2092
2069
2049
2054
2033
2024
2021
1985
2001
1984
2002
1978
1985
1979
1961
1986
1984
1984
1976
1979
1976
1979
1985
1983
1978
1971
1979
1976
1978
1984
1988
1982
2011
1989
1989
1991
1996
2004
2007
2003
2001
2005
2009
2007
2016
2003
2002
1999
2011
2012
2009
2010
2019
2009
2017
2017
2012
2023
2027
2024
2030
2019
2017
2018
2027
2039
2030
2004
2022
2009
2018
2023
2022
2015
2028
2047
2050
2051
2060
2063
2061
2054
2050
2027
2033
2033
2045
2048
2054
2039
2045
2030
2028
2013
2043
2032
1973
1929
1987
2392
3121
3764
4095
4095
3650
3147
2571
2116
1942
1842
1848
1835
1847
1806
1816
1817
1853
1831
1857
1887
1872
1870
1861
1885
1874
1901
1898
1880
1908
1901
1899
1909
1910
1888
1899
1917
1903
1917
1928
1910
1933
1938
1933
1935
1963
1969
1980
1998
2015
2022
2044
2044
2044
2054
2040
2032
2032
1991
1997
1992
1991
1988
1970
1973
1977
1973
1976
1976
1960
1961
1967
1963
1971
1975
1975
1958
1975
1957
1955
1962
1969
1959
1967
1977
1975
1979
1973
1973
1973
1983
1988
1986
1994
1985
1992
1996
1995
2007
1990
2003
1997
1990
1999
1998
2007
2005
2006
1994
2007
2014
2006
2000
2026
1985
2011
2023
2018
2006
2025
2027
2017
2040
2019
2021
2020
2031
2011
2012
2017
2031
2047
2061
2054
2051
2072
2062
2059
2044
2026
2029
2045
2064
2052
2050
2058
2050
2049
2044
2024
2050
2047
1988
1941
1964
2316
3005
3683
4095
4095
3732
3215
2665
2171
1982
1865
1849
1849
1846
1809
1817
1840
1860
1869
1868
1867
1869
1863
1868
1873
1888
1898
1895
1896
1905
1905
1908
1921
1919
1918
1934
1910
1924
1926
1909
1923
1921
1930
1938
1948
1968
1964
1980
2005
2021
2041
2060
2045
2060
2055
2059
2030
2039
2023
2010
2006
2000
1989
1979
1994
1984
1981
1984
1977
1981
1982
1981
1990
1994
1985
1988
1981
1989
1984
1982
1963
1983
1994
2001
1989
1995
1976
1982
1994
2000
1999
2008
1996
2011
2000
2010
2005
2012
2020
2016
2030
2024
2027
2030
2020
2020
2017
2010
2018
2027
2022
2009
2003
2020
2015
2021
2021
2019
2015
2031
2016
2027
2028
2034
2015
2035
2006
2008
2014
2017
2020
2031
2058
2043
2062
2075
2073
2083
2076
2054
2023
2029
2030
2049
2052
2065
2043
2060
2050
2048
2023
2047
2051
1984
1950
1991
2311
3026
3666
4095
4095
3718
3201
2637
2168
1973
1874
1854
1854
1851
1823
1832
1850
1876
1865
1889
1883
1878
1872
1873
1883
1902
1921
1914
1901
1924
1913
1921
1923
1921
1924
1922
1933
1945
1931
1939
1945
1950
1960
1977
1981
1991
2000
2012
2030
2046
2056
2065
2067
2089
2072
2068
2047
2050
2033
2024
2017
1992
1998
1989
1984
1987
1983
1983
1983
1980
1973
1971
1974
1988
1969
1972
1983
1986
1989
1993
1983
1996
1982
1990
1988
1994
1989
1999
2005
1998
2013
2003
1997
2020
2002
2016
2018
2020
2026
2024
2043
2033
2047
2033
2033
2043
2029
2035
2030
2043
2048
2041
2033
2031
2038
2042
2029
2043
2009
2067
2083
2077
2078
2081
2079
2075
2075
2042
2048
2047
2060
2058
2076
2073
2074
2066
2056
2056
2052
2047
2040
2003
1955
2066
2511
3211
3751
4083
3898
3347
2935
2486
2107
1962
1861
1843
1900
1893
1861
1850
1880
1908
1903
1907
1924
1909
1916
1915
1920
1936
1944
1937
1944
1959
1947
1970
1970
1980
1959
1989
1994
1982
2020
1992
2004
2013
2032
2036
2054
2061
2067
2072
2088
2114
2126
2122
2137
2117
2107
2092
2083
2058
2050
2034
2025
2007
1981
2010
2009
2016
2003
1994
1990
1981
1995
1985
1998
2000
2008
1986
1991
1999
2007
2007
2017
2003
2010
2021
2028
2031
2028
2018
2020
2010
2011
2021
2034
2041
2046
2022
2043
2041
2038
2045
2042
2034
2040
2054
2054
2042
2024
2019
2022
2039
2060
2067
2077
2078
2102
2068
2086
2071
2051
2049
2061
2060
2066
2076
2067
2049
2064
2084
2058
2027
2055
2022
1983
1958
2051
2507
3229
3798
4095
3941
3394
2971
2481
2098
1944
1856
1854
1866
1882
1835
1829
1879
1895
1886
1894
1898
1906
1896
1902
1922
1921
1918
1933
1920
1945
1951
1949
1945
1959
1958
1964
1970
1961
1961
1977
1970
1997
2011
2014
2021
2046
2048
2060
2086
2099
2112
2112
2100
2087
2066
2058
2043
2023
2010
1989
1978
1985
1961
1962
1964
1965
1957
1962
1958
1964
1964
1966
1974
1952
1964
1966
1946
1971
1986
1964
1944
1977
1946
1961
1973
1975
1964
1982
1990
1978
1968
1977
1997
1988
1989
1972
1987
1987
2018
2002
1967
1999
1980
2009
2003
2002
1980
1986
2010
1982
2012
1983
1960
1986
1973
1976
1991
2024
2008
2021
2027
2023
2041
2039
2021
2019
1975
1992
2005
2024
2035
2031
2018
2014
2006
2007
1992
2008
2030
1954
1903
1916
2185
2860
3570
4050
4095
3784
3263
2734
2191
1962
1836
1801
1837
1810
1759
1777
1779
1810
1825
1832
1824
1840
1844
1832
1844
1845
1855
1859
1855
1860
1862
1880
1875
1865
1874
1881
1880
1881
1887
1884
1902
1908
1913
1916
1944
1942
1957
1981
1971
2016
2023
2038
2028
2023
2027
2006
1979
1970
1959
1950
1954
1929
1917
1913
1905
1909
1918
1919
1903
1920
1920
1917
1948
1899
1912
1901
1903
1911
1910
1916
1915
1927
1918
1928
1922
1919
1938
1928
1922
1931
1936
1936
1925
1945
1953
1936
1973
1917
1933
1949
1947
1948
1958
1948
1946
1936
1950
1950
1955
1974
1965
1962
1954
1968
1970
1970
1959
1961
1976
1977
1977
1978
1979
1970
1993
1975
1987
1973
1977
1972
1983
1972
1957
1960
1976
2000
2013
2007
2013
2018
2025
2022
2014
1994
1998
1992
2007
2013
2006
2008
2020
2009
2001
1995
1989
2023
1978
1905
1891
2036
2554
3308
3909
4095
4070
3482
2949
2367
2029
1872
1813
1808
1804
1799
1784
1793
1810
1812
1836
1830
1837
1829
1839
1831
1835
1852
1856
1861
1861
1864
1865
1869
1872
1883
1880
1872
1886
1883
1892
1894
1897
1888
1907
1923
1934
1945
1968
1975
1990
2004
2010
2021
2028
2020
2034
2021
2003
1997
1989
1971
1976
1960
1958
1945
1946
1932
1936
1930
1930
1934
1949
1944
1937
1942
1949
1930
1923
1947
1931
1961
1961
1921
1934
1927
1942
1944
1956
1947
1944
1953
1963
1939
1949
1951
1956
1957
1963
1967
1955
1969
1965
1954
1970
1963
1962
1964
1971
1966
1966
1964
1978
1964
1973
1975
1972
1981
1973
1972
1986
1972
1978
1985
1978
1981
1988
1978
1999
1981
1981
1986
1984
1964
1976
1978
1972
1994
2010
2006
2016
2021
2013
2023
2019
2006
1988
1977
2000
2006
2024
2027
2011
2016
1996
1993
1982
2003
2008
1938
1892
1913
2237
2921
3624
4076
4095
3752
3217
2652
2143
1946
1826
1813
1807
1804
1781
1787
1784
1802
1822
1825
1841
1835
1832
1829
1845
1847
1844
1851
1843
1854
1868
1859
1866
1875
1875
1873
1888
1880
1892
1877
1899
1898
1906
1918
1919
1946
1947
1962
1971
1991
1996
2044
2002
2011
2021
2000
2010
1993
1993
1965
1956
1951
1940
1921
1947
1948
1931
1931
1921
1925
1928
1935
1925
1925
1919
1933
1926
1933
1937
1921
1924
1932
1929
1931
1943
1935
1937
1949
1948
1965
1972
1952
1945
1959
1961
1975
1957
1968
1958
1975
1972
1982
1970
1963
1973
1976
1978
1977
1981
1984
1988
1986
1977
1988
1990
1997
1987
1997
1992
1992
2003
2001
2000
1999
1991
1994
2000
1994
2002
2008
1998
2011
2006
2029
2025
2039
2045
2050
2042
2040
2018
2018
2021
2019
2039
2048
2038
2028
2032
2040
2026
2009
2022
2040
1987
1949
1947
2242
2909
3565
3987
4077
3592
3113
2669
2185
1979
1869
1817
1844
1850
1838
1796
1844
1851
1852
1864
1873
1872
1862
1887
1870
1886
1895
1883
1899
1887
1902
1930
1929
1934
1921
1910
1934
1942
1953
1949
1955
1955
1965
1969
1990
2002
2013
2013
2040
2048
2061
2078
2088
2079
2072
2070
2052
2038
2032
2001
1991
1986
1971
1963
1969
1951
1950
1953
1966
1951
1952
1953
1948
1943
1945
1953
1955
1954
1952
1967
1946
1985
1975
1943
1983
1955
1967
1970
1978
1966
1974
1981
1974
1972
1976
1974
1982
1983
1982
1978
1985
1987
1991
1974
1995
1960
1979
2012
2000
2008
1996
1996
1987
1993
1981
1977
2003
2005
2014
2023
2038
2039
2045
2048
2039
2024
2025
2005
1998
2010
2030
2034
2037
2030
2020
2018
2026
1986
2010
2025
1969
1928
1962
2306
3004
3621
4029
4035
3522
3068
2589
2132
1940
1830
1812
1835
1847
1810
1812
1844
1864
1870
1858
1865
1885
1878
1865
1883
1883
1891
1909
1898
1912
1903
1920
1924
1923
1934
1922
1934
1944
1936
1936
1949
1959
1963
1985
1994
2005
2017
2033
2039
2053
2062
2076
2082
2078
2071
2047
2039
2022
2013
1985
1980
1975
1974
1959
1953
1953
1945
1963
1956
1947
1940
1941
1956
1953
1944
1946
1949
1947
1959
1943
1952
1951
1952
1956
1959
1963
1956
1974
1972
1977
1993
1950
1971
1971
1976
1960
1975
1979
1981
1985
1993
1977
1961
1993
1999
1986
1980
1990
1985
1991
1985
1991
1992
2003
2020
2003
2008
1988
2011
1985
2000
2001
1986
1991
1998
2006
1989
2003
2026
2021
2053
2037
2048
2037
2025
2028
2017
2013
2003
2036
2030
2034
2031
2018
2029
2014
2012
2004
2034
1962
1904
1908
2130
2745
3495
3985
4095
3929
3380
2832
2272
1969
1845
1823
1827
1813
1767
1797
1806
1839
1844
1833
1841
1837
1841
1840
1846
1864
1881
1832
1863
1858
1869
1878
1886
1873
1869
1882
1892
1883
1883
1889
1892
1898
1908
1909
1933
1940
1961
1968
1979
1986
1997
2010
2016
2026
2033
2027
2018
2003
1978
1974
1982
1960
1959
1947
1938
1947
1941
1916
1937
1930
1934
1938
1947
1933
1939
1939
1936
1928
1932
1934
1930
1941
1934
1925
1948
1946
1952
1946
1954
1935
1937
1954
1955
1949
1959
1965
1959
1959
1967
1966
1979
1967
1967
1966
1965
1974
1977
1969
1982
1977
1977
1971
1974
1986
1976
1976
1989
1979
1972
1984
1986
1974
1988
1991
1984
1979
1993
1979
1991
1979
1986
1969
1984
1979
1972
1977
2000
1989
2011
2030
2016
2030
2027
2018
2006
2006
1974
1992
2018
2008
2014
2005
2020
1994
1990
1984
2008
1981
1922
1874
1971
2422
3148
3781
4095
4095
3573
3049
2459
2030
1877
1794
1792
1805
1792
1775
1781
1801
1800
1804
1828
1808
1823
1830
1825
1834
1835
1842
1844
1859
1853
1845
1864
1874
1865
1866
1874
1850
1868
1877
1883
1878
1881
1881
1879
1892
1911
1919
1932
1942
1954
1970
1986
1993
2006
2007
2005
2001
1988
1975
1962
1955
1941
1952
1950
1927
1917
1926
1924
1933
1934
1928
1931
1927
1923
1936
1930
1921
1931
1932
1927
1938
1927
1927
1939
1950
1948
1953
1952
1946
1947
1951
1965
1962
1969
1974
1961
1969
1959
1979
1970
1982
1961
1975
1971
1959
1978
1990
1980
1976
1988
1976
1987
1998
1978
1984
1990
1988
1980
1998
1996
1996
2000
2010
1996
1997
2001
1991
2004
2009
1997
1996
1991
1991
2007
2040
2023
2039
2037
2045
2044
2039
2018
2013
2012
2029
2030
2037
2025
2014
2037
2031
2029
2006
2021
2010
1940
1901
1998
2411
3136
3772
4095
4095
3561
3077
2502
2088
1926
1841
1827
1848
1817
1788
1804
1834
1848
1847
1846
1857
1850
1844
1864
1865
1876
1876
1888
1868
1897
1901
1869
1909
1885
1899
1898
1903
1907
1906
1918
1912
1914
1923
1910
1946
1948
1959
1976
1984
1989
2011
2023
2036
2039
2043
2045
2038
2019
1999
1980
1983
1971
1971
1962
1957
1957
1947
1957
1962
1954
1964
1955
1963
1946
1943
1953
1951
1954
1952
1946
1952
1965
1966
1954
1965
1960
1955
1963
1967
1961
1975
1962
1984
1963
1972
1994
1981
1982
1981
1984
1988
1994
1988
1977
1978
1988
1986
1979
2000
1987
1992
1994
1995
1985
1993
2001
1994
2000
2005
2007
2012
2008
1998
1984
2003
1986
1999
2020
2031
2043
2050
2038
2046
2051
2043
2033
2021
2010
2006
2027
2045
2030
2027
2025
2034
2012
2010
2008
2038
1991
1936
1923
2092
2667
3377
3895
4095
3873
3331
2866
2314
2012
1873
1811
1831
1829
1819
1795
1819
1831
1853
1855
1862
1859
1853
1859
1857
1869
1861
1873
1881
1887
1892
1890
1898
1874
1893
1892
1894
1909
1894
1904
1896
1917
1918
1910
1924
1928
1923
1942
1965
1961
1995
2002
2007
2009
2025
2027
2016
2004
1993
1991
1968
1960
1950
1954
1954
1961
1930
1940
1950
1939
1947
1946
1949
1941
1935
1937
1925
1944
1946
1947
1951
1937
1945
1952
1953
1967
1952
1964
1968
1964
1961
1971
1967
1983
1975
1979
1968
1953
1971
1983
1989
1982
1976
1988
1979
1980
1998
1989
1997
1998
1982
1994
1993
1995
1997
1997
2004
2010
2004
2021
2002
2006
1995
2010
2006
2015
2005
2002
1996
2004
1997
2011
2008
2019
2032
2043
2047
2049
2047
2047
2042
2018
2028
2018
2027
2052
2042
2047
2034
2047
2036
2026
2013
2044
2004
1969
1925
2012
2465
3189
3778
4095
4064
3537
3055
2488
2080
1933
1843
1856
1844
1841
1816
1823
1850
1851
1848
1853
1874
1872
1879
1893
1857
1887
1881
1883
1894
1910
1901
1894
1904
1907
1901
1912
1916
1907
1909
1927
1906
1930
1932
1927
1945
1957
1951
1960
1981
1997
2003
2030
2033
2033
2050
2055
2028
2033
2012
1998
1996
1996
1992
1972
1973
1973
1959
1970
1962
1968
1967
1965
1964
1965
1954
1962
1958
1975
1965
1964
1970
1972
1971
1969
1967
1972
1971
1978
1983
1981
1988
1986
1984
1995
1999
1998
1992
1996
1988
1993
1990
1998
1997
2010
2004
2019
1990
1997
1995
2004
2006
2007
2018
2019
2017
2014
2024
2026
2016
2021
2023
2025
2030
2023
1999
2013
2013
2011
2020
2010
2032
2039
2045
2061
2048
2065
2067
2059
2041
2029
2012
2042
2039
2046
2060
2039
2052
2045
2024
2025
2035
2028
1982
1938
2058
2514
3218
3798
4095
3979
3441
3016
2464
2080
1938
1853
1856
1874
1866
1838
1840
1878
1886
1889
1883
1894
1899
1895
1917
1901
1904
1918
1908
1925
1931
1934
1930
1939
1940
1944
1946
1968
1970
1961
1968
1953
1970
1981
1986
1994
2005
2021
2040
2044
2068
2080
2074
2094
2089
2097
2099
2082
2070
2054
2041
2035
2032
2018
2013
2004
2008
2012
2004
1998
2011
2014
2012
2027
2029
2025
2026
2008
2021
2026
2034
2035
2039
2037
2044
2062
2053
2060
2056
2050
2067
2071
2084
2070
2085
2081
2066
2091
2097
2098
2104
2113
2113
2120
2132
2120
2139
2148
2155
2152
2168
2156
2170
2172
2175
2177
2181
2192
2204
2216
2239
2250
2261
2270
2290
2291
2307
2295
2283
2274
2283
2292
2301
2324
2325
2330
2338
2322
2321
2285
2330
2304
2275
2225
2287
2738
3450
4016
4095
4095
3610
3222
2795
2446
2297
2216
2201
2222
2271
2248
2269
2264
2321
2296
2303
2329
2337
2336
2341
2366
2376
2369
2365
2379
2399
2405
2422
2429
2438
2459
2470
2464
2468
2482
2498
2506
2514
2531
2542
2556
2575
2581
2587
2600
2644
2651
2673
2650
2672
2646
2637
2653
2615
2583
2568
2577
2560
2564
2558
2550
2551
2543
2560
2558
2561
2574
2582
2566
2578
2587
2579
2579
2587
2590
2590
2572
2600
2577
2579
2606
2597
2605
2612
2594
2614
2598
2608
2620
2623
2616
2610
2626
2634
2644
2643
2628
2623
2634
2633
2639
2637
2657
2679
2659
2705
2681
2688
2711
2699
2684
2684
2683
2680
2693
2702
2688
2702
2693
2699
2679
2679
2639
2651
2638
2596
2538
2698
3276
3981
4095
4095
4095
3801
3411
2931
2626
2523
2431
2428
2459
2460
2434
2456
2452
2479
2482
2489
2495
2514
2507
2512
2541
2544
2571
2579
2586
2601
2601
2637
2656
2683
2691
2705
2728
2759
2775
2827
2873
2905
2931
2987
3032
3081
3127
3154
3161
3198
3233
3225
3238
3245
3226
3224
3226
3236
3235
3238
3265
3278
3319
3349
3403
3469
3521
3568
3617
3677
3723
3777
3770
3745
3707
3699
3674
3625
3570
3529
3501
3478
3443
3399
3362
3333
3329
3296
3259
3216
3177
3129
3110
3096
3040
3023
3014
3005
2981
2958
2940
2936
2929
2927
2933
2930
2930
2927
2945
2948
2957
2945
2950
2929
2915
2937
2930
2945
2966
2951
2938
2936
2923
2884
2878
2913
2903
2820
2778
2795
3148
3894
4095
4095
4095
4095
3905
3361
2907
2731
2639
2627
2639
2649
2617
2627
2657
2664
2691
2702
2704
2708
2727
2736
2741
2765
2795
2792
2817
2810
2829
2839
2846
2865
2887
2901
2906
2913
2916
2922
2942
2950
2958
2959
2979
2979
3014
3025
3039
3058
3056
3064
3074
3055
3048
3024
3004
2988
2988
2961
2941
2942
2943
2942
2945
2912
2933
2931
2922
2917
2913
2900
2888
2884
2891
2881
2877
2873
2877
2866
2864
2868
2858
2861
2872
2850
2854
2837
2844
2848
2854
2842
2848
2839
2829
2823
2834
2815
2823
2821
2802
2788
2799
2800
2794
2800
2799
2790
2786
2780
2784
2773
2754
2740
2764
2758
2718
2733
2810
2862
2756
2685
2864
2887
2845
2849
2707
2621
2773
2831
2741
2705
2762
2790
2727
2713
2722
2733
2714
2648
2603
2655
3051
3785
4095
4095
4095
4095
3754
3150
2713
2538
2447
2461
2451
2439
2413
2415
2434
2440
2443
2450
2450
2439
2447
2430
2442
2442
2436
2441
2447
2452
2443
2458
2466
2446
2452
2449
2450
2450
2465
2454
2448
2448
2461
2471
2485
2500
2509
2508
2537
2536
2561
2579
2563
2564
2563
2558
2537
2525
2511
2507
2509
2525
2486
2465
2485
2456
2472
2477
2480
2441
2441
2443
2432
2443
2426
2414
2418
2420
2427
2407
2428
2403
2411
2418
2408
2406
2422
2430
2406
2431
2411
2407
2419
2421
2420
2428
2434
2401
2409
2396
2404
2400
2406
2419
2414
2407
2402
2396
2401
2402
2400
2406
2404
2404
2398
2400
2401
2404
2403
2396
2387
2383
2394
2399
2405
2396
2380
2387
2396
2388
2384
2386
2373
2378
2378
2371
2365
2369
2374
2363
2377
2385
2373
2384
2395
2405
2406
2399
2376
2351
2357
2380
2384
2397
2398
2376
2374
2372
2396
2357
2323
2350
2363
2263
2258
2833
3693
4095
4095
4095
3620
3237
2775
2389
2171
2127
2158
2172
2148
2126
2158
2184
2189
2186
2180
2192
2188
2192
2184
2178
2196
2193
2200
2210
2199
2213
2205
2195
2182
2185
2187
2179
2183
2181
2173
2180
2175
2174
2162
2158
2158
2177
2180
2183
2162
2178
2176
2160
2152
2134
2121
2099
2069
2049
2004
1975
1951
1939
1918
1895
1878
1881
1867
1851
1826
1826
1805
1804
1800
1784
1778
1786
1771
1770
1765
1750
1752
1740
1723
1722
1723
1737
1733
1733
1718
1719
1721
1720
1720
1718
1704
1708
1705
1709
1713
1726
1706
1724
1712
1719
1711
1709
1712
1702
1691
1712
1697
1713
1694
1695
1672
1660
1723
1697
1713
1712
1713
1727
1711
1698
1666
1670
1674
1690
1677
1694
1684
1670
1661
1661
1647
1637
1650
1655
1604
1566
1573
1926
2619
3240
3671
3643
3082
2605
2142
1744
1549
1460
1437
1447
1478
1459
1451
1477
1502
1496
1484
1523
1527
1520
1520
1522
1531
1541
1538
1541
1531
1544
1554
1560
1554
1560
1562
1574
1577
1573
1582
1610
1607
1616
1633
1642
1662
1688
1691
1712
1719
1742
1738
1755
1729
1715
1719
1694
1682
1670
1665
1657
1649
1636
1623
1625
1625
1623
1621
1633
1631
1632
1643
1643
1645
1649
1646
1640
1651
1661
1648
1656
1680
1681
1676
1704
1662
1682
1696
1708
1702
1710
1718
1718
1706
1713
1731
1721
1748
1719
1716
1739
1731
1754
1760
1742
1742
1738
1721
1734
1737
1729
1734
1746
1755
1770
1786
1805
1802
1792
1794
1779
1771
1775
1766
1773
1800
1808
1791
1791
1784
1791
1776
1755
1806
1760
1715
1664
1787
2351
3091
3678
3967
3740
3137
2669
2147
1794
1658
1588
1617
1634
1612
1590
1618
1667
1673
1666
1697
1681
1662
1696
1690
1654
1687
1769
1756
1620
1676
1837
1754
1744
1755
1565
1677
1814
1737
1653
1742
1776
1756
1748
1796
1838
1830
1855
1865
1898
1897
1925
1941
1921
1898
1894
1883
1887
1848
1866
1834
1839
1797
1799
1707
1968
2103
1531
1236
2233
2872
1041
400
2518
4095
365
0
1198
1540
3350
4095
1461
345
2794
3536
1750
1443
2457
2633
2074
1923
2338
1569
1741
1862
1726
2315
2125
1823
1799
2260
2148
1774
1811
2289
2251
1561
1897
1861
1816
2269
2221
1966
1922
1928
2129
1989
1997
1610
2073
1474
2037
1526
2048
1920
2047
2336
2048
2023
2047
2005
2048
2087
2047
1801
2048
1316
2047
1678
2048
1558
2047
1523
2048
1775
2047
1491
2048
1950
2047
2324
2048
2058
2047
2090
2048
2255
2047
1916
2048
1452
2047
1793
2048
1560
2047
1683
2048
1697
2047
1547
2048
1807
2047
1550
2048
1910
2047
2272
2048
2055
2047
2089
2048
2238
2047
1935
2048
1827
2047
1824
2048
1443
2047
1757
2048
1587
2047
1682
2048
1693
2047
1569
2048
1765
2047
1418
2048
1827
2047
1975
2048
1895
2047
2252
2048
1936
2047
2175
2048
1943
2047
2207
2048
1924
2047
2310
2048
1879
2047
1222
2048
1853
2047
1245
2048
1869
2047
1877
2048
1963
2047
2203
2048
2113
2047
2027
2048
2320
2047
1853
2048
1415
2047
1672
2048
1615
2047
1457
2048
1851
2047
1934
2048
2119
2047
1940
2048
2408
2047
1616
2048
1440
2046
2336
2049
1777
2046
2015
2049
2058
2045
1731
2050
2233
2044
2894
2029
1647
2044
1648
2050
1662
2045
1459
2049
1726
2046
1235
2049
1667
2046
2192
2048
1842
2033
2085
2066
1959
2009
1974
2099
2061
1967
1899
2148
2232
1915
2032
1633
1617
1866
1823
1762
1632
1829
1737
1802
1672
1809
1710
1812
1700
1800
1705
1802
1707
1800
1711
1798
1709
1798
1712
1800
1708
1794
1710
1806
1695
1801
1763
1784
1608
1811
1905
1741
1533
1809
2077
1704
1522
1790
1397
2309
2353
1735
0
1967
1549
1655
2109
1186
1096
1553
1779
1441
1378
1457
1553
1473
1457
1340
1242
1690
1510
1620
1589
1696
1783
1344
1322
1823
1463
2083
1836
1940
1788
2127
2135
1856
1895
2143
2415
1902
1898
1705
2370
2359
1406
1739
2824
3227
1596
1659
3286
3832
4095
4095
3578
4095
4095
4095
3701
4095
1793
2789
3762
4095
1957
2897
3828
3836
4095
4095
4007
4095
3993
4095
4095
4095
4095
4095
4095
4095
3109
4095
4095
4095
4095
4095
4095
4095
4095
4095
4095
4095
4095
4095
4095
4095
4095
4095
4095
4095
4095
4095
4095
4095
4095
4095
4095
4095
4095
4095
4095
4095
4095
4095
4095
3872
2272
4095
4095
4095
4095
4095
3572
3954
884
1639
3000
1816
1421
1621
2505
1828
1784
1578
2244
1391
2047
695
2048
1393
2047
1321
2048
1130
2047
1569
2048
1513
2047
1797
2048
1853
2047
1696
2048
1820
2047
1582
2048
1813
2047
1509
2048
1851
2047
2025
2048
1909
2047
2204
2048
1968
2047
2084
2048
2053
2047
1990
2048
2179
2047
1922
2048
2241
2047
1859
2048
1520
2047
1795
2048
1558
2047
1774
2048
1785
2042
1788
2054
1946
1926
1668
2210
1162
1672
455
2554
769
1244
292
2894
598
602
0
0
0
0
0
0
0
0
45
0
0
236
119
0
0
0
595
0
0
0
760
3930
2257
380
0
0
0
915
281
2850
2085
1390
1824
2474
1958
1736
2302
2251
1586
1895
1193
2048
1817
2047
1245
2048
2300
2047
2211
2048
1647
2047
1864
2048
1903
2047
2194
2048
2044
2047
2170
2048
1690
2047
2180
2048
2209
2047
2282
2048
2407
2047
2324
2048
2378
2047
2333
2048
2347
2047
2333
2048
2332
2047
2304
2048
2340
2047
2285
2048
2405
2047
2244
2048
2545
2047
2255
2048
2323
2047
2234
2057
1836
2035
2059
2074
1949
2009
1911
2105
2033
1960
1764
2166
1999
2262
2221
2249
2237
2162
2287
2244
2364
1985
2319
1820
1956
2069
2130
1914
1933
2066
2033
1991
1958
2042
1989
2024
1982
2008
1953
2052
2022
1959
1920
2086
2122
1838
1910
2029
2213
1640
1992
1528
1681
1754
1736
1762
1680
1857
1715
1906
1735
1972
1795
1995
1802
2115
1999
1990
1969
1976
1971
2040
2134
1783
2022
1781
1900
1744
1996
1545
1741
1797
1871
1664
1789
1749
1822
1735
1827
1687
1777
1813
1860
1655
1700
1984
1902
1921
1963
2074
1951
2050
2115
2099
1995
1775
2077
1555
2025
1719
2054
1440
2042
1663
2048
1635
2047
1550
2048
1814
2047
1611
2048
1964
2047
2291
2048
1912
2047
2102
2048
1943
2047
2003
2048
1861
2047
1947
2048
2143
2047
1856
2048
2165
2047
1762
2048
1932
2047
1923
2048
1456
2047
1546
2048
2064
2047
2033
2048
1809
2047
2097
2048
1889
2047
2135
2048
1972
2047
2030
2048
2091
2047
1959
2048
2226
2047
1895
2048
1958
2047
1797
2048
1492
2047
1656
2048
1664
2047
1485
2048
1802
2047
1996
2048
1897
2047
2224
2048
1956
2047
2092
2048
2017
2047
2000
2048
2126
2047
1905
2048
2288
2047
1755
2048
1931
2047
1545
2048
1560
2047
1989
2048
1771
2047
2267
2048
1961
2047
2088
2048
2131
2047
1956
2048
2310
2047
1849
2048
1550
2047
1713
2048
1577
2047
1536
2048
1741
2047
1764
2048
1863
2047
2254
