Tong,Dang Khoa,1488,10/14/2019,2:37:41 PM,10/14/2019,3:03:26 PM
2090
1916
1866
2166
2447
2423
2260
2071
2069
2347
2087
1964
1966
1945
1838
1932
2090
2027
1743
1785
1775
1872
1861
1772
1706
2071
2336
2410
2525
2557
2334
2197
1798
1990
2192
1948
1911
2042
1922
1680
1751
2586
2609
2281
2050
1819
1908
1998
1961
2216
2024
1777
1712
1906
2273
2441
2163
2048
1893
1775
1874
2208
2195
2084
2006
1990
1780
1856
1966
1987
2071
2029
1916
2292
2386
2326
2129
1998
2034
2087
1945
2061
2084
1977
1722
1848
2213
2336
2174
2145
1806
1701
2040
2221
2105
2139
2071
2223
2160
2163
2260
2108
1956
1814
1483
1877
1877
1761
2197
2405
2239
2132
1995
2179
2153
2032
1953
2129
1956
1764
2037
2281
2147
2108
2079
2229
2090
1932
1877
2142
2116
1835
1740
1877
2071
2202
1985
2202
2087
1838
1853
2066
2420
2357
2069
2179
1885
1819
1651
1714
2268
2378
2037
1992
2061
2284
2063
2008
2100
2132
1830
1698
2160
2397
2113
2171
2082
2263
2189
2090
2155
1851
1677
1709
1454
1803
2097
2334
2160
2048
2452
2447
2021
1998
2011
2050
1880
2034
2000
1979
2181
2184
2087
2097
1814
1735
1853
2263
2153
1987
1811
1588
1998
2336
2166
2402
2032
1717
1956
2363
2412
2242
2124
2027
1961
2100
1919
2071
1964
1788
1859
1966
2124
2147
2034
2013
1769
2187
2370
2216
2118
1953
1990
2134
2134
2279
2034
1911
1643
1685
2145
2643
2738
2268
1856
1906
1748
1998
2079
2016
1937
1586
1449
1743
2079
2489
2386
2391
2268
2061
2013
1861
1565
1751
1998
2234
2349
2357
2129
2210
2205
2090
2205
2328
2074
1880
1601
1719
1908
2053
2034
1956
2055
2084
1908
2079
2037
2118
2163
2147
2121
2294
2378
2087
1788
2048
2076
2037
1914
1874
1817
1633
1670
2129
2221
2286
2166
2042
2097
2145
2166
2108
1819
2139
2268
2092
2087
2116
1924
2090
2184
2202
2195
2019
1803
1958
2019
2124
1906
1801
1945
2019
2105
2042
1782
2158
2019
1953
2271
1932
1572
2037
2394
2533
2397
2300
2048
1890
1895
2053
2071
2016
1777
2076
2347
2058
1746
1932
1969
2145
2216
2090
2000
1845
1334
1520
2071
2475
2439
2431
2554
2328
1869
1919
2006
2160
2090
2090
1979
1796
1759
1990
2092
2226
2163
2145
2092
2055
1937
1979
1861
1840
1866
1895
1969
2210
1874
1880
2202
2116
2105
2431
2391
2252
2076
2229
2181
2092
2066
2145
2040
1927
1809
1872
2000
2142
1985
1851
1635
1830
1995
2084
2210
2255
1953
1845
1950
2258
2231
2237
2208
2210
2045
1961
2126
2019
1691
2087
2074
1780
1743
1809
1964
2258
2160
2187
2200
2202
2116
2153
2003
1935
1932
1866
1809
2105
2216
2279
2132
2187
2153
2050
2003
2084
2090
2208
2216
1971
1654
2016
2027
1922
2158
2226
2084
2061
1869
1780
1680
2100
2281
2292
2145
1898
1922
1838
1609
2258
2389
2294
2389
2252
1966
1874
1754
1811
2034
2373
2281
2252
2063
2100
1956
1814
2032
2097
1977
2048
1843
1864
1591
1599
1985
2339
2599
2565
2176
2008
1851
1885
1691
2013
2342
2205
2079
2090
2074
2145
1974
2129
2053
2050
2045
1853
1924
2121
2090
2066
1956
2260
2113
2008
2019
1990
1953
1822
1898
2160
2042
2286
2263
2192
2074
1995
2071
2016
1764
1735
1578
1727
1977
2405
2486
2294
1880
1667
1961
2331
2179
2221
2084
2092
2050
1992
2163
2223
2071
2195
2082
2118
1987
1916
1822
1922
2118
2087
1935
1890
1754
2087
2103
1966
1874
2129
2415
2342
2163
2113
1985
2034
1777
1948
2058
1874
2016
2376
2360
2181
1977
2113
1961
1966
1979
1982
1859
1767
1895
2095
2247
2394
2003
2160
2208
2021
1940
1853
2076
2289
2084
2226
2084
1971
1843
1780
1735
1796
1979
2192
2055
2179
2166
2216
2276
2221
2150
2208
1935
1890
2118
2284
2058
1859
1551
1817
2105
1974
1919
2034
1772
1691
1861
2258
2420
2454
2271
2195
2208
2331
2142
2019
1956
1982
1830
1882
2116
2260
1971
1785
1756
2058
2079
2003
2021
2029
1777
1895
2126
2244
2226
2113
1911
2208
2158
2021
2050
2008
2013
2058
1893
2000
1958
2202
2284
2187
2237
2066
1824
1935
1788
2050
2205
2150
2069
2210
2294
2129
1932
1979
1919
2076
1982
2008
2205
2208
1940
1961
2016
2153
2113
2163
2000
1856
1838
1945
1840
1945
2126
2132
1953
2163
2166
2189
2032
1677
1746
2252
2313
2179
1953
2063
2168
2079
1911
2247
2381
1979
1691
2092
2326
2160
1740
1856
2037
2087
2166
2126
1995
2108
1869
1746
1832
2184
2284
2142
2032
2061
1859
1856
1943
2200
2273
2252
1985
1872
2037
2218
2160
2108
1985
2097
1961
1932
1940
1885
1709
1772
1990
2200
2237
2391
2132
1880
1869
2145
2279
2352
2470
2355
1919
1924
1985
2095
2013
2069
2082
1887
1751
1914
1898
1761
1725
2071
2118
2310
2260
1937
1940
2045
2066
2226
2084
2281
2216
1919
1859
2066
2208
2307
2192
2124
1919
2027
1943
1843
1992
1995
1662
1646
1827
2076
2100
2323
2315
2187
2108
2279
2307
2082
1982
2336
2250
1940
1782
1903
1706
1746
2255
2318
1995
2155
2024
1927
1943
2147
2153
2042
2019
1987
2037
2066
1656
1740
2079
2321
2163
2053
2029
2063
2132
2216
2181
2268
1740
1486
1919
2276
2305
2208
1958
1856
1874
2132
2042
2055
2045
1872
1706
1950
2331
2271
2055
2271
2137
2242
2410
2244
2084
1956
1874
1982
1756
1861
2058
2205
2150
2013
2008
2029
1908
1924
1950
2360
2357
2208
1987
2003
2139
1777
1609
2090
2213
2105
1859
1998
2048
2069
2163
2195
2124
2027
1961
2139
2013
2090
1943
1827
2071
2105
2105
2142
1859
1990
2082
2347
2286
2016
1992
2016
2016
2092
2053
2124
1843
1801
1987
1966
1845
2021
2158
2153
1961
1937
1822
1824
1927
2273
2418
2226
2082
2187
2271
2326
2082
2053
1861
1688
1654
1740
2034
2300
2221
2250
2239
2321
2103
1966
2097
2100
2016
1893
1641
1895
1927
1866
1974
2187
2218
2216
2258
2216
2011
1927
1664
1764
2024
2268
2305
2279
2307
2137
1893
2100
2189
2223
2121
2118
1990
1612
1515
1848
2084
2213
2082
2255
2281
2103
2118
2027
1916
1998
2061
2336
2286
2179
1717
1376
1688
2069
2197
2226
2055
2032
1982
2063
1940
1908
2069
2139
2150
2111
1987
2063
2019
2195
2336
2381
2187
1916
1843
1845
1882
1882
1544
1830
2276
2197
2042
2166
2239
2260
2150
2082
1945
1877
1845
2079
2247
2174
2048
2079
2139
2271
2271
2084
1903
2024
1987
1940
1953
1919
1793
1806
1940
1966
1811
2048
2210
2192
2284
2153
1945
2061
2134
2470
2399
2061
1995
1838
1759
1961
2019
1969
1698
1877
2276
2258
2166
2195
2176
2271
2153
2166
2113
1877
1775
1819
1869
2008
1911
1735
1824
2234
2363
2258
2166
2087
1929
2024
2187
2258
2321
2213
1927
2179
2223
1937
1956
1958
1916
1971
1809
2126
2294
1998
1848
1932
1866
1717
1864
2105
2053
2087
1979
1845
1811
2184
2559
2520
2315
2268
2192
1998
2021
2250
2100
1990
2006
2034
2003
1898
1843
1971
1903
1898
1945
1929
1885
1838
2006
2134
2029
2024
1971
2197
2326
2216
2210
2058
1769
1903
2168
2192
2006
2071
2097
1956
1940
2158
2286
2176
1919
1922
2121
2221
2079
2134
2069
1832
1901
1977
1948
1998
1796
1793
1856
1924
2100
2192
2265
2292
2155
2171
2158
2158
2121
2174
2234
2058
1782
1764
2071
2276
2111
2074
1995
2006
2032
2116
2315
2053
1814
1895
1767
1906
1982
1987
1890
1777
2048
2239
2076
1974
2034
2192
2116
2129
2231
2289
2250
2066
2003
2150
2103
1887
1754
2032
2129
1977
1798
1853
2237
2226
2090
2431
2339
2029
1782
1777
2024
2011
1964
2019
2008
1974
1740
1824
1974
2021
2155
2181
2168
2139
1958
1956
2090
2097
2126
2510
2428
2124
2082
1979
2027
1908
1882
2342
2111
1851
1927
1853
1835
1748
1969
2292
2058
2082
2090
1864
1845
1971
2197
2368
2315
2263
2208
2239
2066
1903
2069
2126
1940
1769
1727
1887
1853
1675
1935
2599
2418
1974
2216
2142
1922
2029
2121
2226
1940
1733
1743
1851
2231
2268
2124
2150
1950
1932
1935
2145
2439
2347
2129
1990
2053
2108
1932
2124
2237
1777
1554
1922
1969
1908
2142
2129
2045
2150
2058
2226
2234
1982
1971
1948
1987
1943
1969
2263
2155
2176
2147
1733
1714
1874
2061
2265
2145
2153
1929
1680
1908
2189
2318
2284
2145
2037
2037
2150
2050
2016
2003
1979
2000
1971
2079
2126
2092
1953
1864
2252
2129
1911
2137
2069
1919
1788
1691
1851
1801
2121
2415
2276
2289
2116
2048
2263
2129
2192
2179
1950
1971
2019
1979
1974
1982
1987
1953
2016
2019
1977
1911
2050
2158
1964
1995
2069
2045
2244
2216
2163
2021
1759
1874
2069
2216
2265
2174
2092
1748
1859
2132
2116
2239
2279
2150
1901
1691
1822
2027
2284
2268
2160
2229
2105
1943
1974
1924
1927
2040
2113
1916
1788
1906
1919
1901
2095
2391
2418
2027
1877
2092
2202
1945
1764
2126
2391
2205
2121
2061
2006
1911
1872
2066
2116
2079
1927
1809
1958
1985
2027
2071
2137
2174
1845
1751
1969
2061
2281
2454
2436
2242
2055
2071
2126
2084
1895
1866
2008
1890
1838
1864
1824
1895
2066
2276
2344
2163
2037
2063
2029
1911
2042
2192
2074
1998
1990
1932
1882
1853
2134
2376
2223
2084
2037
2019
2003
1929
1945
1861
1835
2058
2176
2118
2137
2168
2124
2279
2410
2218
2074
1859
1738
1935
2076
2066
1969
1898
1948
1943
1956
1977
2103
2223
2124
2034
2076
2139
2082
2034
2137
2216
2195
1919
1706
1922
2061
2074
2103
2139
2260
2040
1877
2040
2166
2231
1977
1819
2019
1990
1929
1964
2006
2132
2042
1932
2076
2105
2034
2174
2197
1943
1859
1961
2006
2074
2121
2189
2071
1811
1985
2268
2276
2171
2155
2168
1995
1911
2069
2179
2184
2116
1995
1853
1727
1767
1906
2079
2171
1969
1809
1966
2158
2166
2200
2315
2234
2244
2202
1956
1853
1788
1882
2074
2121
2090
2097
2142
2008
2061
2205
2231
2273
1974
1761
1733
1596
1819
2084
2239
2426
2147
2021
2242
2244
2347
2121
1672
1717
2061
2100
1775
1751
1916
1979
2192
2200
2090
1992
1796
1945
2457
2746
2570
2045
1617
1691
2053
2058
1966
1990
1950
2055
1861
1706
2158
2258
2168
2187
2313
2176
1593
1622
1929
2090
2328
2202
2260
2223
1966
2174
2289
2132
1890
1861
2132
2021
2069
2079
1806
1922
2202
2302
2307
2218
1730
1318
1769
1929
1916
2037
1677
1654
2250
2725
2801
2541
2300
1898
1811
2142
2121
2124
2247
2223
1885
1389
1719
2050
2019
2276
2286
2105
1754
1271
1761
2447
2352
2166
2460
2289
1725
1662
1588
1656
2310
2678
2583
2103
1945
1887
1727
2145
2281
1998
1956
1740
1995
2231
1885
2021
2601
2741
2181
1743
1979
1788
1546
1887
2153
1743
1297
1651
2381
2777
2601
2208
2255
2145
2137
2326
2229
2069
1712
1491
1614
1977
2507
2063
1809
2158
2084
2069
1922
1945
2221
2150
2318
2184
1987
2076
1706
1402
1898
2510
2512
1790
1633
2053
2124
2058
2384
2580
2132
2163
2292
1523
1441
1898
2213
2370
2263
2263
1966
1654
1806
1969
2289
2103
1764
1696
1646
2069
2342
1877
1780
2276
2675
2507
2394
2342
2063
1901
1908
2082
2323
2134
1604
1278
1885
2328
1982
1961
2087
2058
2092
2087
2297
2184
1880
1622
1709
2160
2121
1958
2137
2108
2276
1966
1562
2066
2234
2195
2478
2271
2095
2142
2271
2323
2365
2181
1811
1649
1698
2079
2363
1806
1276
1488
1843
1995
2499
2688
2139
2003
2223
2071
2084
2100
2129
2076
2006
2263
2265
1856
1370
1173
1935
2168
1919
2289
2273
2237
2357
2048
2126
2213
2055
2008
2158
2315
2055
1544
1633
1969
2315
2468
2268
2158
2289
2027
1893
2116
2074
2040
2084
1780
1932
2363
2394
1901
1628
1827
1995
1806
1895
2289
2452
1609
935
1533
2166
2273
2394
2292
2229
2153
2221
2163
2124
2525
2494
1662
1620
2124
2037
1656
1746
2231
2620
2168
1856
2139
2200
2111
2108
2055
2231
2105
2029
1901
1740
2042
2223
2034
2116
1924
1843
1919
1877
1803
2006
2389
2386
1969
1974
2103
2024
1788
2027
2549
2604
1704
1158
1541
1866
2008
2410
2510
2313
1974
2176
2662
2460
1911
1866
1922
1932
1893
2166
2000
1260
1037
1882
2386
2281
2281
2457
2326
2042
1901
2281
2557
2357
2158
2129
1895
1733
1764
2053
2079
2163
1796
1436
1901
2302
2205
2153
2111
2139
1641
1596
2108
2179
2097
2087
2160
2237
1798
1851
2126
2202
2281
2247
1961
1893
1956
2268
2412
2386
2181
1919
1764
1775
1882
2029
1911
1722
1433
1740
2391
2688
2441
2286
2255
2058
2011
2234
2197
2071
1691
1751
2040
2150
2145
1985
1845
1903
1832
2105
2255
2121
2034
2084
2118
2058
1992
2113
1961
1940
1945
2124
2210
2142
2271
2192
1861
1822
1801
1943
1908
2053
2103
1969
2048
2129
2134
2300
2268
2229
1777
1761
2100
2132
1916
1793
1977
2216
2163
2510
2402
1948
1454
1318
1691
2184
2494
2515
2176
2053
1916
2129
2273
2242
2216
2300
2289
1769
1404
1819
1777
1987
2271
2357
2205
1748
1567
1827
2034
2373
2436
2415
1966
1811
2071
1929
1785
2103
2137
1969
1635
2029
2300
1866
1890
2250
2145
2079
2061
2189
2150
2213
2103
2289
2318
1901
1943
2108
1919
2328
2176
1662
1546
1769
1979
2111
2158
2184
1974
2042
2090
2242
2237
2108
2006
2095
2189
2281
2090
1864
1693
2045
2079
1919
2003
2076
1927
1733
1911
2502
2200
1877
1853
2176
2292
1866
1919
2289
2095
2084
2197
2444
2281
1953
1727
1801
1924
1869
1811
2019
1906
2021
2184
2160
2145
2292
2079
1908
1898
2013
2032
2032
1859
2111
2221
2092
2381
2554
1895
1903
2389
2468
1964
1761
1961
1843
1612
2155
2552
2082
1158
1386
2066
2158
2108
2252
2229
2208
1969
2084
2276
2310
2079
1929
1958
2166
2129
2100
2163
2168
1452
1221
1848
2258
2134
2276
2315
2234
2158
2197
2071
2153
2053
2076
2405
2069
1620
1733
1166
1462
2336
2609
2625
2352
2116
2360
2126
1775
1751
1982
2053
2061
1906
2042
1979
1612
1685
2134
2347
2769
2465
2029
1977
1843
1793
2050
2205
2263
2076
1964
1735
1840
1838
1916
2192
2258
2097
2237
2142
2095
2019
2171
2244
1979
1580
1824
2326
2339
1782
1914
2273
2252
1901
1801
1701
1735
2029
2376
2276
2050
1880
2076
2218
2307
2200
2037
1559
1502
2158
2578
2129
1990
1864
2111
2730
2504
1722
1683
1830
1932
1845
2105
2134
1932
1819
1890
1992
2226
2124
2126
2205
2284
2218
2118
1780
1890
2116
1945
1885
2189
2092
2045
2063
2208
2063
2105
2250
2126
1922
1809
1612
1924
2150
2397
2389
2145
1982
1940
1932
2302
2428
2394
1832
1473
1523
1730
2069
2426
2237
1819
1591
1785
1906
2331
2344
2137
2121
2071
2053
2181
2147
2192
1817
1832
2069
2234
2139
2021
1908
1977
2095
2027
1803
2168
2166
2003
2174
2276
2202
2208
2092
2355
2158
1693
1565
2003
2289
2171
1885
1670
1496
1798
2124
2431
2523
2454
2024
1730
2042
2368
1985
2000
2084
2090
2168
2153
1672
1512
1903
2213
2097
2092
1835
1830
2008
2336
2517
2363
2132
1992
1788
2034
2286
2181
1349
1110
1683
2344
2441
2281
2386
2229
1740
2202
2307
1817
1620
1817
2113
2318
2307
2405
2189
2189
2142
2397
2481
1929
1570
1740
1832
1908
1806
2195
2289
2189
2124
2084
2205
1953
1541
1969
1990
1835
1811
1987
2218
2273
2116
1992
1932
2132
2129
2252
2234
2213
1958
1454
1394
2024
2357
2292
2155
2433
1935
1399
1845
2342
2263
2103
2108
2420
2092
1851
2069
2347
2100
2024
2321
2360
1992
1754
1596
1827
1961
2223
1987
1740
2153
2436
2242
2066
1838
1953
1696
1869
2370
2454
2231
2032
2011
2294
2153
2058
1961
1929
1974
2166
1961
1630
1693
1992
1950
2105
2174
2145
1824
1685
1756
1848
2174
2447
2160
2357
2326
2176
2181
2158
2145
2058
1801
1817
1890
2103
2029
2179
2213
2090
2252
2276
1822
1717
1866
2145
1906
1754
1937
1895
1793
2179
2428
2378
1929
1817
2092
2360
2234
2394
2389
1953
1670
1754
1769
1992
1877
1916
2163
2205
2063
2006
1966
2160
2441
2578
2105
2155
2171
1788
1796
2027
2013
2116
1950
1924
1956
1958
1872
2150
2171
1987
2155
2284
1948
2027
2428
2436
1712
1562
1890
1911
1780
2090
2328
2021
1625
2027
2142
2174
2273
2197
2079
1887
1809
2252
2187
2176
2368
2310
2100
2223
2105
1845
1743
1853
1796
1824
1872
2024
2079
2129
2168
2336
2302
2055
1654
1738
1914
1890
1761
2071
2355
2255
2061
2187
2100
2087
2055
2210
2334
2153
2019
2126
1874
2021
2105
2048
1877
1719
1727
1819
2000
2273
2200
2431
2496
2229
2032
2163
1822
1515
1704
1890
1887
2168
2168
2139
1927
1859
2181
2399
2231
2168
2142
2158
2032
2153
2202
2069
1874
1964
1995
2053
1937
1567
1376
2084
2318
2210
2407
2418
2126
1998
1901
2129
2202
2187
2158
2200
1995
1864
1738
1832
2137
2195
1693
1643
1756
2006
2160
2145
2218
2244
1971
2160
2297
2244
2176
2436
2276
1851
1788
1990
2003
2097
2137
2100
1654
1483
1777
2153
2231
2195
2061
2155
2027
2027
1966
1901
2016
2281
2129
1880
1924
2223
2076
2200
2444
2242
1814
2000
2407
2462
1890
1386
1284
1719
1872
2097
2349
2260
1985
1814
1756
2260
2352
2200
2195
2578
2536
1945
1764
1961
1969
2184
2116
2055
1793
1659
1533
1717
2252
2491
2310
2181
2037
2229
2237
2121
1914
1646
1389
1722
2328
2533
2237
2202
1948
2029
2179
2105
2357
2428
1780
1588
1798
2066
1814
1817
2328
2483
1859
1460
1827
2069
1735
2237
2478
2268
2239
2229
2069
2040
2100
2216
2129
2216
2100
1895
1570
1712
2013
2000
2129
2391
2108
2000
1801
1838
1932
2048
2386
2460
2092
1998
1953
2113
2029
2055
2087
1945
1775
1851
2019
2247
2242
2063
1887
2179
2171
2179
2307
2247
1908
1890
1974
1806
1601
2003
2100
2126
2208
2069
1898
1824
1696
2179
2331
2307
2181
1811
1761
2071
2221
2376
2155
2158
2239
2302
2147
2087
1924
1832
1748
1767
1901
2121
1998
2027
2024
2158
2118
1924
1937
2195
2263
2090
1649
1743
1937
2328
2420
2321
2284
1890
1470
1780
2084
2302
1971
1801
2168
2531
2420
2134
2118
2347
1916
1704
1727
1814
1769
1672
1943
2384
2365
2281
2071
2134
2082
2142
2103
2029
2063
2171
2066
1940
1788
2132
2184
1992
1998
1966
1824
1943
1859
1990
2179
2195
1908
1935
1935
2037
2292
2218
2029
2310
2250
2166
2034
2124
1992
1790
1803
1919
2019
2147
2105
2294
2055
2147
2268
2037
1937
1927
1704
1809
2016
2370
2370
2397
2239
1964
1746
1780
1992
2181
1864
1809
1911
1848
1725
2328
2783
2470
2045
1985
1683
1746
1832
1974
2111
2061
1861
2090
2407
2512
2118
1987
1966
2100
2242
2189
1927
1874
1722
1824
2027
2121
2037
2053
1853
1793
1935
2202
2108
1908
1974
2439
2310
2155
2074
2066
2105
1950
1922
2268
2092
1982
1929
1914
1756
1893
2226
2297
2142
2242
2145
2200
1887
1832
2302
2292
1725
1772
2071
2226
2058
2063
2037
2147
2063
1916
1901
2042
2108
1992
1670
1906
2163
2271
2069
2132
2260
1956
1756
2003
2021
2237
2116
1874
1803
1919
2034
2216
2281
2460
2307
2090
1935
2066
2058
2058
2147
2179
1680
1391
1672
2097
2058
2181
2105
2084
2208
2229
2239
2195
1977
1911
1683
2160
2410
2087
1880
1801
1969
2289
2058
2040
2034
2171
2226
2176
2179
2197
1916
1822
1903
2237
2179
2050
1903
1874
1777
1788
1937
2108
2124
2179
1914
1764
1738
2082
2242
2126
1901
1961
2171
2160
1822
2058
2184
2168
2205
2092
2076
2276
1982
1911
2150
2512
2271
2006
1961
2079
2289
2082
1591
1817
2013
2108
2090
2137
2034
1982
2037
2171
2171
2197
1940
1872
1772
1866
1853
1908
2160
2255
2284
2604
2318
1769
1425
1714
2066
2092
2058
2042
2016
2365
2153
2129
2184
1992
1950
2040
2011
2237
2166
1709
1525
2034
2231
2260
2074
2097
2118
1838
1725
1982
1979
2221
2281
2336
2218
1998
2055
2027
1751
2037
2216
2242
2103
2111
2029
1877
2013
2263
2105
1937
1767
1859
1712
1887
2512
2454
1819
1932
2252
2349
2092
2147
2003
1630
1609
2042
2415
2370
2003
1982
1856
1969
2084
2294
2294
1950
1649
1601
1824
2265
2097
2142
2247
2279
2208
2011
2024
2103
1971
2234
2082
2118
2273
2105
2013
2061
1971
1830
1599
1822
1985
2202
2129
2069
2019
1887
1964
2013
1840
2160
2315
2357
2205
2195
2168
2074
2061
2244
2229
2111
1906
1929
1772
1515
1383
1914
2355
2412
2294
2105
1922
1940
1740
2019
2247
2155
2111
2171
2108
2124
2027
1948
1801
2181
2399
2234
2103
1948
1956
2095
1696
1740
2019
2176
2008
1882
1803
1817
2200
2376
2202
2588
2258
1874
1990
1969
1958
1998
1712
1714
2042
2365
2415
2494
2069
1817
2042
2121
1932
2048
1979
1785
1517
1559
1953
2386
2370
2370
2481
2297
1859
2074
1958
1717
1882
2097
2124
2097
2150
2265
1990
1940
1911
2045
2132
1964
1853
1948
1903
2084
2142
2108
2134
2368
2363
2189
2066
1948
1717
1656
1751
2092
2195
2229
2103
2048
2019
2111
2231
2208
1985
2000
2055
2097
1859
1916
2265
2221
1950
2058
2171
2223
1901
1919
2111
2042
1861
1730
1759
2076
2037
2024
2292
2496
2184
1937
1856
1887
1811
1798
2082
2231
1819
1843
1911
1943
2192
2444
2617
2541
1848
1914
2313
2121
1882
1995
1822
1672
1830
2076
2132
2297
2019
1827
2029
2202
2176
2192
2142
2171
2000
1683
1743
2234
2242
2223
2263
2168
1924
1769
2058
2415
1864
1759
1935
1727
1796
2019
2079
2265
2242
2192
2048
2181
2200
2055
2045
1935
1796
1932
1953
2061
2166
2189
1908
1971
2100
2134
2284
2208
1987
2147
2239
1990
1407
1714
2210
2103
2184
2289
2029
2040
1864
1882
2344
2528
2184
1937
1979
2021
1924
2029
1919
2058
2197
2016
1953
2003
2003
2000
1864
1977
2071
2084
1995
1911
1911
2000
1979
2034
2111
2074
2076
2268
2166
2048
2050
2265
2247
1929
2013
2150
1861
1932
2000
2108
2176
1987
1956
1982
1832
1903
2055
2250
2218
2116
2118
2145
2032
1971
1922
1790
1903
2234
2216
2300
2281
2019
1843
1998
2147
2126
2231
2174
1906
2189
2171
1911
2040
2084
2113
2050
1740
1977
2084
1890
1869
1775
1929
2339
2386
2567
2158
1483
1475
1714
1958
2452
2349
1832
1885
2074
2021
2176
2137
2076
1966
1890
2024
2034
1927
1987
2176
2512
2454
2263
2145
1964
1956
1990
1885
1803
1667
1979
2166
2008
1872
1887
2008
2111
2195
2389
2284
2042
1919
1869
1838
2210
2305
1927
1848
1958
2155
2126
1733
2134
2328
1961
2061
2208
2113
1932
1935
2347
2339
2113
1927
1814
1845
2037
2242
2286
1872
1383
1567
2111
2134
2134
2160
2082
2090
2095
2113
2229
2055
1932
2006
2239
2394
2100
1969
2087
1832
1772
2019
2331
2294
2252
2381
2221
1840
1588
1882
2307
1948
1683
1793
1793
1591
1593
2105
2423
2276
2189
2189
2386
2365
2021
1819
1958
2079
2134
2328
2195
1929
2100
1995
1943
2160
2116
2027
1937
1906
2158
2032
1641
1376
1793
2433
2349
2255
2231
2124
2221
1929
1937
2226
2095
1948
1982
1961
1751
1646
2011
2292
2331
2478
2391
1803
1691
2105
2158
2019
2063
1943
1956
2048
2137
2226
2184
2076
1995
1861
1670
1775
2092
1922
1851
2100
2032
2024
2231
2263
2231
2111
2066
1937
1754
1945
2153
2129
2210
2294
2247
2171
2229
2132
2074
2192
2063
1806
1593
1607
1948
2108
2087
2137
2171
1885
1785
2092
2279
2258
2053
1809
2032
2150
2150
2239
2050
1969
2095
2050
2229
2384
2090
1950
2095
1977
1714
1685
1885
1971
1992
2011
1927
1872
1943
2121
2502
2670
2279
1961
2013
1985
2145
2137
1916
1927
1824
1866
2105
2079
2013
2071
2139
2053
2021
2252
2368
2006
1649
1738
2058
2069
1958
1966
2084
2132
2013
1969
2037
2013
1764
1740
2208
2368
2326
2289
2134
2208
2208
2179
2331
1927
1546
1614
1677
1777
2021
2318
2473
2368
2063
1809
1945
2139
2090
1893
1782
2013
2160
2074
2321
2384
2205
2179
2069
1906
1727
1517
1722
2105
2197
2313
2360
2069
1754
1730
2097
2239
2082
2042
1932
1943
2255
2242
2302
2630
2347
1733
1523
1659
1832
1961
2042
2084
2176
1992
2087
2381
2111
1672
1667
2139
2360
2208
2321
2187
1914
2063
2171
2187
2310
2029
1622
1578
1830
2063
2134
2103
2158
2439
2226
1662
1869
2137
1995
1793
1872
2134
2155
2139
2176
2097
1945
1874
2092
2184
2294
2160
1824
1895
1977
2181
2279
2032
2076
1927
1817
2105
2074
1903
2021
2071
1940
1814
1950
2037
2263
2433
2234
2197
1911
1662
2040
2171
2263
2171
1633
1659
1935
1990
2223
2449
2431
2061
1819
2126
2286
1798
1748
2247
2273
2048
1992
2040
2087
1691
1541
1971
2352
2352
1885
1874
2218
1890
1751
2197
2549
2454
2040
1914
2105
2179
2053
2066
2176
1932
1759
1809
1919
2105
1961
1719
1756
2066
2412
2373
2357
2279
2105
1793
1562
1982
2042
1635
1835
1979
2142
2491
2384
2391
2410
2076
2032
2276
2218
1866
1866
1843
1546
1748
2082
2221
2260
2061
2058
2066
1822
1628
1901
2205
2084
2242
2315
2063
1966
1898
2153
2294
2063
1966
1840
1890
2024
2019
2200
2231
2042
1887
1874
2197
2273
2147
2103
2071
2286
2355
2124
1927
2000
2050
1599
1481
1814
1845
1890
2118
2381
2431
2223
2084
2034
1895
1748
2063
2160
1796
1992
2368
2137
1901
2147
2468
2268
2016
2016
1922
1895
1772
1730
2158
2268
2189
2163
2103
2061
1633
1570
2221
2504
2129
1777
1979
2029
1877
2063
2384
2507
2171
1819
2069
2179
2029
2076
2255
2024
1544
1572
1903
2034
2061
2108
2457
2263
1872
2260
2473
2218
2045
1835
1643
1580
1885
2027
2074
2326
2216
1940
1777
1890
2475
2538
2286
2216
2076
1906
2129
2205
1620
1399
1971
2187
2237
2289
2145
2079
1793
1853
2567
2717
2013
1323
1355
1520
1654
2103
2370
2271
2174
2184
2305
2071
1832
2042
2205
1964
1672
1924
2237
2147
2234
2226
2239
2276
2079
2069
2250
2263
1864
1488
1811
2069
1827
1730
1966
2087
1995
2160
2426
2292
2192
2300
2334
2205
1911
1441
1544
2071
2166
2113
2126
2074
2391
2391
2113
2247
2468
1969
1349
1612
1985
2087
2271
1985
1922
2171
1979
1780
2111
2559
2302
1544
1423
1869
2321
2349
2184
2239
2234
2048
2048
2048
2074
2040
2097
2021
1872
1851
1777
1840
2055
2111
2095
1916
1906
1916
1796
2187
2651
2334
2061
2181
2276
2006
1790
1893
2053
2171
2145
1919
1974
2087
2268
2234
2069
2063
2032
1835
1557
1578
2000
2097
1788
1693
2179
2334
2153
2181
2197
2095
1924
1832
2184
2197
1974
2142
2294
2205
2168
2181
2441
2357
2055
2069
2265
1985
1656
1719
1872
1853
1460
1292
2113
2473
2231
2197
2302
2273
2113
2402
2638
2079
1827
1667
1496
1635
1932
1990
1845
2084
2315
2239
2460
2347
2281
2118
1809
1869
1827
1659
1882
2132
2066
1706
2000
2428
2286
2344
2239
1845
1887
1872
1929
1985
2166
2216
1893
2024
2428
2326
2011
1961
2313
2279
2134
1851
1764
1985
1735
1706
1977
1649
1738
2305
2628
2523
2318
2205
2155
2040
1793
1775
1898
1341
1336
2126
2701
2748
2084
1756
2095
2034
2174
2284
2090
1903
1882
2061
2444
2594
2237
1919
1961
1919
1874
1630
1360
1360
1617
2163
2851
3003
2381
1712
1793
1903
1958
2003
2003
2168
2202
2053
2168
2097
1958
1950
1927
1992
2192
2213
2195
2082
2048
2071
2118
1995
2006
2113
2097
1853
1423
1599
2302
2147
2197
2444
2179
1998
1964
1793
1777
1914
2139
2231
2412
2386
2365
2158
1814
1872
2116
2055
1895
1898
2163
1830
1788
2142
2116
2050
1940
1835
2150
2118
2126
2139
2092
2184
2082
2111
2344
1992
1811
2040
2142
1722
1746
2066
2084
2160
2221
2118
1906
1530
1817
2221
2368
2344
2137
1908
2003
2268
2310
1958
1880
1961
2095
1803
1725
2132
2040
1887
2237
2237
2349
2239
1908
1838
2092
2363
2294
2003
2034
1958
1974
1985
2013
1995
1898
1950
1856
1557
2042
2092
1767
2053
2478
2486
2252
1911
1840
1979
2132
2006
2258
2407
2252
1990
1838
1683
1817
2205
2310
2289
2441
1572
977
1814
2462
2307
2431
2300
1998
1882
1911
1911
2069
1898
1769
2184
2578
2373
2281
2147
1919
1848
2205
2239
2011
1916
1819
1772
1924
1977
2200
2132
2171
2184
1974
1859
1641
1599
2066
1861
1971
2389
2231
2134
2302
2197
2168
2105
2087
2024
2069
2032
2105
2029
1906
2061
2323
1943
1575
1646
1922
2061
2132
2097
2208
2139
2055
2108
2310
2166
2095
1777
1428
1704
2265
2300
2307
2357
2176
1985
2155
2171
2263
1992
1583
1538
1761
1929
2352
2402
2137
1927
2187
2336
2179
2013
1945
1901
1995
1901
2027
1827
1714
1835
2105
2373
2321
1971
2063
2050
1845
2032
2601
2394
2126
2113
2150
2234
2016
1588
1956
2181
1964
1722
1950
2179
1977
1780
2006
2168
2250
1971
2021
2063
1780
1460
1903
2546
2496
2234
2491
2292
1861
1717
2040
2048
1567
1326
1738
2118
2268
2153
2428
2391
2171
2195
2255
2158
2205
2097
2003
1898
2069
1861
1672
1756
2032
2239
2242
2197
2045
1586
1943
2213
2231
2355
2376
2265
1919
1465
1809
2040
1998
1924
1961
2090
2118
1840
1901
2111
2289
2050
2045
2347
2499
2034
1785
1956
1856
1685
2118
2407
2307
1832
1869
2053
1987
2071
2449
2279
1851
1662
2008
2284
2363
2271
1992
1643
1667
1937
2305
2244
2226
1995
1874
2132
2423
2229
2055
1977
1824
1643
1838
1830
1945
1987
2092
2286
2318
2137
2265
2281
2179
1887
1861
1998
2155
2121
1922
1722
1838
1851
2108
2132
2048
1746
1759
2250
2336
2147
2281
1675
1572
2373
2751
2378
1835
1475
1859
2111
2087
2216
2378
1872
1748
2048
2247
2263
2213
2095
2221
2095
1995
1759
1788
1922
1953
1811
1719
1908
2195
2103
2297
2155
2103
2061
2118
2496
2557
2053
1764
1819
2223
2179
2150
2090
1887
1733
1919
1895
1880
2066
2058
1672
1843
2071
2286
2139
1890
2334
2670
2205
2187
2192
2084
1893
1922
2079
2008
1822
1872
1796
2053
2171
2271
2037
1740
1864
1927
1924
2318
2171
1929
1806
2069
2103
2029
2439
2588
2103
2063
2048
2087
2011
1979
1937
1843
1656
1806
2024
2087
2095
2426
2407
2142
2048
2189
1895
1746
1908
1985
1885
2071
1956
1856
1935
2273
2260
2134
2237
2210
1848
1769
1866
2265
2381
2208
1992
1916
1801
1788
1796
1953
1956
2153
2076
2027
2331
2520
2260
2195
2092
2076
1935
1974
1851
1806
2137
2218
1866
1950
2037
2090
1727
1698
2208
2242
1824
1992
2250
2391
2307
2347
2197
2061
1998
2042
2032
1961
1830
1869
1809
1919
2045
2134
1919
1992
2003
1845
1937
2024
1943
2163
2179
2352
2150
1950
2058
2090
2000
1969
2103
2475
2276
2063
1866
1958
2181
2197
2247
2444
1843
1360
1575
1950
2061
2181
2008
2063
2218
2129
2097
2137
1803
1956
2205
2181
2034
2171
2181
1927
1885
2234
2231
2124
2013
2074
1906
1554
1467
2137
2594
2355
2000
2090
1982
1906
2100
2436
2137
1659
1449
1880
2470
2418
2095
2378
2184
1685
1809
2103
2006
2202
2192
2129
2048
1911
1832
2008
2105
2079
1861
1625
1604
2008
2202
2625
2615
2174
2029
1922
1866
2103
2006
2066
1998
1751
1667
2048
2279
2368
2310
2192
2082
2181
1950
1764
1840
2171
1859
1646
2357
2588
1683
1326
1706
2431
2499
2297
2326
2208
1914
1877
1966
2386
1966
1515
1901
2055
2048
2420
2294
2195
2113
2071
1927
1843
1861
1982
2084
2247
1979
1903
1992
2092
1924
1979
2202
2300
2071
1756
1530
1740
1775
2082
2452
2258
1620
1746
2460
2699
2244
2095
2006
2019
1914
2019
2231
1927
1457
1843
2531
2756
2462
2226
1861
1958
1985
1803
1903
2087
2013
2179
2142
1906
1740
2105
2279
2234
2069
1667
1580
2045
2250
2557
2525
2234
1856
1782
1922
2042
1964
1793
1562
1979
2255
2118
2058
2321
2279
1964
1848
2084
2092
2244
2258
2084
1977
2184
2116
1929
1966
2021
1903
1856
1664
2197
2294
1712
1874
2399
2147
2116
2147
1990
2082
2297
1977
1914
1961
2034
2082
2011
1966
2153
1985
2076
2223
2268
2129
2129
2200
1940
1740
2100
1790
1520
1851
2370
2339
1948
1827
2171
2121
1927
1890
2153
2250
2310
2053
1893
2105
2363
2179
2100
2058
2053
1701
1662
1885
2019
1961
1838
1817
2273
2386
2347
2050
1937
2105
2150
2019
2061
1982
1927
1872
2174
2334
2281
2063
2040
2008
2021
1958
1950
1872
1995
2048
2179
2200
2292
2255
2071
2021
2134
1880
1788
1649
1964
2307
2289
1995
1832
1914
2055
1922
1998
2037
2027
1856
2134
2436
2284
1992
1948
1887
2087
1979
1898
2019
2021
1966
2300
2412
2242
2013
2223
2174
1956
1832
1793
1743
1869
1914
2150
2454
2612
2384
2037
1386
1439
1840
1950
2302
2449
2006
1748
1441
1856
2268
2118
2213
2410
2250
2279
2116
2082
2124
2268
2113
1969
2223
2189
1638
1866
2305
2370
1992
1961
2397
2315
1523
1530
1911
1864
1386
1467
1943
2381
2418
2439
2512
2470
2142
1987
1922
2197
2234
2090
1803
1838
1935
1565
1428
2071
2195
2349
2389
2347
2097
1604
1530
1903
2147
2557
2428
2213
1919
1567
1827
2465
2412
2394
2200
1719
1507
1830
2163
2394
1919
1840
2260
2237
1979
1943
1948
2137
1798
1761
2069
2150
2221
2433
2336
2342
2231
1985
1659
1977
2213
2013
1782
1796
1924
2055
1861
1985
1901
1929
2103
2145
2126
2145
1890
1788
1995
2528
2454
2244
2223
2208
1890
1664
2027
2473
2118
2113
2242
2129
1809
1764
1895
1995
1948
1937
1735
1712
1701
2153
2447
2347
2239
2192
1966
2108
2205
2084
2061
2200
1722
1759
2155
2095
2066
2158
1937
2100
1971
1937
2176
2166
1985
2218
2076
1790
1819
2174
2313
2265
1796
1735
2126
2252
2100
2171
2116
2132
1759
1538
1809
2050
1851
1935
2289
2517
2184
2066
2034
2184
2389
2363
2074
1919
1751
1790
1872
2048
2071
2268
2168
2048
2071
1856
1838
2158
2124
2168
1722
1688
2268
2363
2000
2076
2105
2079
2103
2192
2116
2234
2042
1887
2027
2302
2155
1832
1680
1843
2092
2124
1446
1801
2662
2525
2171
2208
1982
1817
1659
1971
2255
2095
1628
1641
2192
2494
2074
2108
2365
2423
2166
2006
1864
1793
1436
1583
2357
2544
2032
1882
1764
2087
2357
2399
2328
1940
1670
2013
2111
2208
1935
1819
1853
1838
2048
2281
2302
2399
2003
1919
2029
1908
1693
1767
2147
2512
2137
1974
2055
1971
2008
2462
2391
2208
2040
2029
2103
1775
1670
2271
2118
2024
2079
1919
1775
1604
1725
2208
2155
2323
2171
1759
1772
2237
2328
1882
2003
2664
2202
1956
2126
2097
1966
1927
1806
2040
2034
1793
1780
2050
2229
2693
2475
1906
2034
2281
1869
1659
1735
1696
1399
1906
2507
2554
2208
2063
2307
2281
1982
2229
1937
1704
1607
1845
2452
2402
2027
2134
2116
2342
2231
1945
1856
2027
1824
1551
1656
2174
2271
2118
2113
2300
2160
2142
2095
2118
2095
2003
2021
2095
1830
2045
1877
1717
2061
2174
2042
1995
1824
2111
2150
2260
2226
1979
1914
2076
1922
1764
2000
2423
2202
2260
2271
2163
2111
1927
1937
2239
1848
1667
1696
1937
2271
2313
1969
1969
2158
1985
1683
2195
2315
2163
1964
1922
2040
1992
1985
2239
2137
2205
2061
1901
1830
2103
2381
2310
2087
2252
2289
2171
1887
1754
1685
1824
1822
2042
2174
2137
2071
2008
1864
2040
1914
1785
1712
2042
2591
2436
2116
2423
2344
2231
2000
2003
2121
1832
1591
1877
1874
1659
1536
2082
2504
2615
2507
2032
1824
2016
1767
1764
1903
2116
2184
2223
2197
2216
1788
1586
1992
2444
2384
2279
1992
1906
1956
2118
2302
2412
2139
1914
1575
1701
1898
1851
1859
2055
2100
2166
2100
2216
2171
2318
2100
1633
1719
2331
2331
1998
2076
2486
2279
1796
1630
2108
2053
1688
1869
2373
2357
2116
1966
2137
2032
2061
1935
1675
1646
1764
1761
2061
2447
2662
2271
2271
2352
2097
1945
1992
1819
1638
1404
1675
2179
2538
2436
2244
2250
2276
2021
2095
1916
1890
1866
1609
1827
2599
2546
2000
1866
2210
2247
2097
1940
1932
1656
1580
1691
2021
2294
2273
2302
2562
2247
2137
2079
1916
1927
2050
2048
2032
1772
1937
2058
1908
1950
2176
2166
2326
2163
2006
1916
1916
1966
2100
2145
2247
2048
1675
1641
2050
1971
1809
2137
2643
2213
1811
2076
2231
2069
1987
1995
2126
1680
1809
2292
2305
2252
2260
2139
2208
1998
1995
2029
2045
2048
1824
1473
1509
1601
1927
2226
2431
2339
2250
2208
2260
2069
1979
2124
2074
1887
2137
2192
2116
1735
1659
2013
2297
2294
2147
2011
2263
2016
1872
2126
2331
2171
1885
1935
2032
1756
1764
1683
1651
1688
2187
2586
2507
2394
2318
2032
1922
1945
2239
2292
2163
1916
1751
1683
1914
2247
2205
1735
1898
2063
1798
2021
2418
2121
2029
2205
2360
2192
2040
1853
1880
1987
2048
1895
1677
1712
2021
2297
2615
2153
1740
1680
1814
2310
2688
2486
2239
1916
1943
2048
2192
2061
1756
1969
2082
1504
1780
2244
2103
1940
2032
2129
2181
2045
1927
1790
2137
2349
2195
2006
2050
2090
1953
1712
2116
2444
2074
1701
2019
2321
2355
2239
2218
2189
2234
2132
1790
1294
1383
1882
2349
2462
2342
1969
1662
1738
2179
2378
2402
2087
1932
1901
1788
1969
2226
2150
2174
1977
1880
1777
1625
1882
2439
2607
2258
1898
2142
2179
2242
2339
2058
1578
1677
2092
2079
1953
2184
2137
2042
1872
2037
2370
1956
1486
1798
1977
2087
2252
2381
2226
2124
2050
1856
1919
2418
2465
2108
1859
1866
1722
1748
1916
2189
2231
1861
1911
2134
1877
2208
2546
2397
2111
1874
1853
1890
1685
1746
2040
2139
1864
2139
2499
2378
2239
2139
1992
1974
1706
1709
2042
2181
1958
1998
2055
2090
2244
2271
2218
2174
1987
2163
2179
2116
2260
2166
1985
1966
1827
1880
1877
1777
1538
1761
2129
1727
1612
2205
2300
2284
2321
2441
2594
2331
1861
1914
2029
1932
1929
2071
2040
2024
1906
2016
2105
2145
2281
2147
1998
2003
1740
1693
1961
2176
2058
2111
2357
2158
1877
2095
1974
1872
1853
1772
2129
2426
2221
2087
2008
2155
2105
2042
2213
2279
2058
1764
1696
2063
2273
2334
2048
1751
1727
1764
2061
2470
2271
2137
2139
1922
1853
2197
2074
1901
2008
1908
2066
2255
2016
2103
2142
2084
2019
2045
2237
2053
1675
1625
1588
1811
2082
2321
2481
2265
1814
1859
2318
2449
2192
2108
1919
1927
2024
1992
1922
1832
1803
2045
2244
2137
2042
2147
1937
1856
2155
2355
2124
1845
2063
2426
2273
2189
1898
1683
2021
2113
1985
1974
1859
1929
1872
1964
2336
2426
2029
1735
1935
2087
1746
1893
2305
2326
2158
2179
2132
1919
2024
2226
2153
2126
1788
1538
1775
2216
2349
2202
2192
2147
1964
1943
1998
2200
2100
1801
1927
2037
2000
2111
2250
2339
2153
2111
1903
1646
1861
2034
1958
2050
2137
1969
1919
2273
2363
2336
2326
2011
1872
2000
1956
2092
1977
1740
1859
2090
2021
1927
2153
2061
1885
2071
2040
2197
2037
1727
1974
2113
2168
2103
1992
2307
2218
2145
2347
2223
2082
2124
2150
2029
1777
1790
1630
1725
2147
2139
2095
2221
2087
2000
2019
2061
2066
2042
1746
1845
2265
2174
2008
2074
2108
2087
2082
2210
2153
2263
2284
2058
1893
1803
1730
1664
2063
2475
2210
2071
1785
1649
2134
2349
2465
2559
2053
1780
1872
1985
2040
1919
1835
1814
1950
2118
1948
1874
1924
2237
2200
1882
2105
2339
2328
2150
1811
1895
1992
1882
1914
2360
2717
2347
1922
1953
2174
2260
1722
1512
1882
1953
1775
1704
1901
2113
2202
2347
2260
2197
2255
2179
2021
2024
2040
1948
1772
1817
2029
2181
2171
2029
1956
2076
2273
2281
1998
1927
2108
1961
1809
2160
2218
1985
2008
1971
2069
2250
2200
2255
1943
1659
1953
1908
1654
2000
2386
2321
2095
2126
2197
2053
2111
2263
2037
1940
2071
2042
1848
1756
1851
1840
1838
2124
2412
2250
1872
1698
1735
2105
2418
2541
2462
2171
1887
1714
1911
2092
2137
2386
2310
1840
1307
1352
2142
2368
2258
2591
2370
1769
1622
1977
2344
2205
1964
1927
1806
1961
2174
2034
1935
2055
2231
2168
2095
2100
2082
2061
2103
2292
2242
1832
1428
1856
2079
1667
2166
2252
1714
1832
1756
2108
2767
2483
2221
2218
1979
2100
2239
2586
2762
2160
1835
1591
1486
1866
2074
2145
2097
2027
1937
1940
2111
2174
2137
2048
1386
1297
2055
1911
1843
2452
2153
1740
1853
2221
2706
2205
1751
2347
2431
2213
2281
2027
1979
2297
1903
1596
2000
1769
1192
1956
2258
1777
2415
2470
2058
2436
2318
2074
2071
1874
1693
2184
2743
2439
2155
1945
1462
1788
1685
1788
2541
1985
1717
2027
1622
1089
1567
2620
1985
1202
1646
1806
1530
648
1848
3641
2310
1872
3084
3011
2764
2979
1924
1074
1680
2055
2197
2176
1992
1838
1260
1037
1814
3040
2733
1520
2310
3407
2237
1163
1759
2475
2993
2176
1449
2486
1882
1341
2573
2294
1397
1719
2286
2142
3021
3602
1785
441
680
2063
3189
2237
2171
3229
2583
1698
1415
1294
1950
2305
2239
2512
2029
1491
1746
1914
2591
2882
1586
1538
2208
2357
2709
1982
788
1137
2016
2034
2407
3066
2462
2040
1974
1704
2076
2032
1622
2024
2541
2321
1738
1827
1859
1961
2365
1546
1643
2793
2323
1523
1950
2147
1470
1638
2334
2599
2565
2174
2384
2541
1727
1410
1958
2399
2449
2239
2334
1969
1297
2265
2502
1137
1824
2919
2097
1683
2512
2263
1218
1407
1992
2216
2410
2176
1746
1630
2008
2704
2853
1620
1725
3415
2258
722
2599
2867
1155
1418
1916
2252
2756
2363
1633
1239
1633
2113
2234
2662
2549
1901
1499
1496
2355
2882
2441
2016
1874
1717
2034
2609
1992
1452
2084
2024
1544
2145
2733
2310
1838
1738
2300
3071
2441
1549
2048
1914
1163
974
1265
2557
1835
538
2418
2927
1885
2730
3497
2565
2027
1935
1334
1557
2027
2048
1971
1979
2657
3037
1927
1397
3108
3497
1457
1499
2790
858
0
1670
2919
2386
2468
2342
2447
2342
2363
2804
2475
1478
1911
2935
845
0
2384
3570
2092
1449
2617
2599
1528
2069
2147
2040
2499
1376
1029
2415
2706
2216
1759
1790
2817
2746
1790
1360
1089
1701
2861
2250
893
1473
2391
2210
2439
2767
2927
1893
604
2386
3919
3108
2567
2381
1071
0
1667
2525
1137
1633
2502
1919
1908
2181
1670
1735
3035
3315
2192
1814
1775
927
1197
2727
3035
1410
1320
2916
3084
2504
2279
2258
1824
315
929
3376
2192
585
2247
2449
2071
2811
2699
2011
2315
2384
2000
1835
635
1032
2321
1788
2297
2819
2342
2011
1882
2166
2772
2848
1958
685
1239
2909
3092
2515
2465
1956
436
373
2586
3342
1872
1512
2567
2596
1922
2000
2247
1352
1163
2746
3518
2139
898
1740
2174
1352
4095
4095
160
0
2706
1822
1110
2231
2223
2399
2796
2378
2531
1935
305
1407
3581
3079
2108
1407
512
536
1704
3168
3675
2693
1076
181
2145
3182
1410
2499
4095
2263
601
1906
2911
1743
2313
3271
843
0
1877
2491
2011
2066
2142
2546
2533
2108
2843
2171
1378
2447
2670
2066
2116
2465
1504
226
2441
4095
1331
0
1622
2142
1937
2095
2040
2391
2465
2281
2859
2953
2328
2418
1698
606
1032
1772
2142
2100
2625
3163
2769
2179
1830
1617
1924
2452
2420
1617
1717
2226
1877
1536
1698
2567
3405
2021
1053
1701
2454
2339
1095
1339
2859
3176
2276
1971
3583
2252
0
1457
2777
2124
1998
2286
2150
1544
1593
1848
2801
3105
1572
1675
2328
780
756
2483
2667
2601
3069
1184
449
2483
2470
1817
2880
2384
1819
2181
1664
2118
3137
2223
1313
2045
2751
1764
911
1252
1620
2079
2725
2405
2376
2470
2300
2538
2646
2142
1449
958
1265
1622
2678
3200
1890
1229
1641
1730
2074
2281
1953
1874
2181
2486
2785
2323
2061
2578
2360
2271
3145
2055
399
830
1383
1714
2260
2145
2108
2145
2108
2426
3016
2250
995
1575
2323
1173
1297
2888
3405
3297
1838
819
1838
1743
1769
2998
3772
1990
0
436
2376
2607
2397
2591
2848
2142
1436
1811
2825
2990
1651
1446
2565
2263
1213
1097
2544
2313
995
2032
2932
2147
1670
1772
2709
2531
1751
2688
2693
945
1118
2163
2465
2126
1630
1651
2202
2462
2531
2386
1940
1667
1908
1698
1604
2449
2848
2000
1583
1481
1985
2071
1811
2515
2804
2084
1701
1948
2376
2071
2153
2575
1974
1383
2801
2798
848
294
1488
2562
2486
2281
2801
2567
1880
1449
2139
2082
1488
2100
1635
769
2281
3163
3100
2985
2092
1593
2234
2489
2667
2780
1940
819
423
698
1625
2021
2347
2586
2657
3032
2447
1289
1378
1733
2730
2940
2284
2234
1549
914
1572
2499
2447
1276
2158
3444
2055
659
1538
2704
2268
1593
2384
2588
1992
1685
1819
2483
2636
1743
1840
2391
2601
1940
1045
1294
1945
2347
2216
1667
2664
2276
1334
2570
2814
1404
1260
1777
2053
2202
2069
1712
2108
2276
2307
2909
3210
2344
1420
1355
1830
1929
2370
2478
1740
1979
2586
1139
1160
2250
1704
1924
2483
2184
2685
2441
1746
2079
2428
1877
1767
1929
1465
1289
2076
2318
2402
2478
2517
2381
2531
2720
2192
1415
1305
935
963
1717
2706
2672
2124
2305
2594
2111
1775
1851
2276
1932
1523
1764
2205
1911
1578
2237
2775
2336
2525
2549
2126
1859
1473
1360
2265
2502
1903
1638
2321
2048
1454
2368
2439
1357
1656
1811
2460
3250
2181
1299
1979
2055
2192
2418
2378
3024
2562
759
1200
2281
2160
1386
1572
2394
2263
1530
1163
1449
2313
2544
3066
3016
2391
2234
1410
701
1790
2195
1798
1793
2460
2827
2549
2229
2095
1641
1523
1116
1856
3208
2657
1767
1832
1885
2368
2347
2195
3137
3035
937
570
1473
1824
2029
2336
2326
2502
2473
2187
2200
2205
1481
971
1289
1780
2084
2964
2977
1885
1347
2071
2562
2507
2181
2176
2058
1685
1643
2391
2321
1586
1457
2087
2297
1848
2205
2751
1184
1152
2489
2305
2373
2517
2124
2439
2252
2071
2013
2570
2596
1546
1481
1772
1622
1709
1538
2042
2268
1882
1775
1780
1659
2200
2693
2825
2651
2200
2032
2179
1242
1486
2378
1922
2050
2888
2347
1864
1654
1108
971
2289
3000
2586
2116
1394
1586
2762
2370
1990
2234
2237
2082
1924
2024
2300
1305
874
1872
2643
2790
2617
2069
1877
1596
1578
1927
1914
1840
3003
3615
2103
1163
1953
1609
1011
1733
2423
2187
2336
2412
2486
2528
1911
1809
2137
1922
2473
2263
1250
1187
1580
1756
2153
2525
2785
2483
1908
971
1292
2452
2250
1937
2313
2208
2625
2344
1748
2462
2457
1074
1502
2559
2667
2013
1281
1709
2147
2184
2441
1507
2273
2727
1000
1383
2523
2250
2452
2082
1861
2153
1943
1680
2336
2552
2103
2006
2147
2053
2223
2000
1507
1294
1801
2344
2328
1948
2132
2231
2195
2460
2428
1488
1528
2344
2310
1780
1966
2433
2360
1956
2649
2772
1874
1504
1617
1460
1717
1743
1670
1945
2252
2368
2601
2058
1712
2213
2113
1507
1701
1664
2050
2573
2363
1908
1990
2546
2402
1775
2418
2431
1824
1845
2024
2244
2260
1840
1617
1397
1969
2357
2260
2058
1937
2011
1906
2024
2948
2699
1706
1278
1415
1567
2019
2454
2562
2449
2208
1956
2205
1932
1793
1932
1914
1956
2181
2179
2113
2069
2255
2011
1425
1160
1977
2777
2389
1551
1740
2150
2483
2145
2013
2575
2381
1578
1473
1880
2216
2483
2617
1929
2867
3021
617
546
2145
2160
2090
2147
2069
1856
2279
2575
2594
2229
1339
1226
1386
1176
2394
3242
2234
1454
2226
2893
2544
1827
1953
2468
2394
1662
1622
1922
2090
1874
2184
3098
2407
399
662
2176
2525
2111
2349
2428
2294
2447
2617
2050
1389
1313
1890
1919
1851
2189
2111
1806
2134
2512
2607
1788
1462
1906
2192
2008
1683
1696
2208
2349
2150
2179
2720
2499
2402
1995
843
1200
2242
2276
2394
2195
1880
1586
1838
2580
2916
2478
1827
1630
2011
1956
2155
2111
1620
1864
2315
1890
1496
1916
2672
2439
2289
2347
1887
1670
2381
2357
1625
1885
2391
1948
2111
1974
1572
1580
1383
1916
3016
2565
1410
1103
1824
2357
2927
2953
2250
1704
1662
2176
2601
2087
2200
2281
1536
1236
1740
2223
2055
1743
2237
2181
2021
1887
1838
2449
2578
1901
2105
2118
1903
1964
1793
1523
2069
2315
1985
2037
2011
1764
2368
2680
2449
1956
2095
1974
1307
2231
2864
1084
1037
1809
1979
2549
2336
1961
2554
2538
2045
1851
2305
2000
1362
1591
2418
2667
2289
1843
2147
2533
2171
1872
2279
1767
1444
1609
1433
1612
2315
2525
2300
1893
2247
2523
1958
1368
2139
3300
3006
1628
1310
1604
2113
2363
2394
2662
1937
76
192
2137
3029
2496
2289
1901
1730
2489
2953
2265
1895
1659
1473
1782
2641
2759
2431
1880
1523
2013
2297
1977
2373
2286
1236
995
2116
2447
2468
2693
2499
2160
2124
2019
2171
1919
1307
1155
1727
1979
2008
2318
2620
1924
1407
1924
2444
1887
2016
2622
2478
2000
1780
1817
1998
1754
2328
2725
2318
1958
1827
1985
2171
2328
2373
1499
1767
1937
1236
1992
2693
1861
1717
1974
2334
2502
1958
1656
2252
2218
2160
2184
1714
1591
2234
2147
1979
2699
2859
1609
1410
2258
2208
1593
1856
2011
2370
2670
2300
1549
1016
1276
2139
2139
2502
3176
2297
819
1310
2034
1727
2137
2987
2722
2570
2630
2213
1284
1194
1790
2218
2024
1856
2276
2276
1593
2069
2725
2759
2415
2271
2279
2195
1622
659
782
2134
2158
2019
2945
3092
1843
1236
1722
2263
1761
1525
2216
2284
1609
2105
2601
2221
1893
1943
2053
2827
2670
1961
2045
2168
1662
1347
2076
3229
2223
515
638
1546
1885
2502
3153
3069
2139
1788
2116
2066
1932
2536
1754
428
1168
2909
3084
2538
2481
2565
2271
1651
1271
2066
2460
2129
2021
1906
1651
2192
2187
1827
2027
2168
1735
1462
1491
1811
2097
2504
2300
2305
2822
2764
1811
1467
1827
2024
1809
1866
1722
2187
2604
1935
1554
1733
1780
2872
2972
2155
2058
2058
1922
2252
2428
2502
1903
675
165
1754
3016
2523
1746
2019
2389
2336
2192
2478
2620
2273
1512
1746
2105
1940
2124
1866
977
1617
2420
2520
2336
2318
2008
1664
1565
2126
2559
2323
2163
2095
1512
1756
2300
2197
1628
1796
2268
2326
1998
2289
2402
2268
1935
1593
1722
1937
1864
2171
2166
2008
1698
2032
2633
2557
2525
2809
2310
1607
1299
1806
2048
1817
1948
2533
2192
1276
1297
2373
2315
1706
2168
2549
1803
1911
2384
2237
2202
2554
2244
1822
1848
1992
1546
1415
2021
2667
2544
2276
2252
2289
1675
1410
1801
2258
2176
2066
2058
1943
1958
2457
2360
1772
1320
1722
2189
2481
2457
1646
1412
2363
2126
2444
3058
1767
1139
2024
2344
2137
1557
1730
2071
2473
2578
2305
2071
1284
1142
2706
2885
1880
1612
1557
1832
3082
2951
1982
1431
1271
1575
2134
2365
2279
1609
1796
2318
2342
2216
2271
2268
2200
1880
2305
2510
1714
1208
1730
2250
2381
1730
1601
2200
2431
2074
1911
2021
2352
2378
2368
2084
1990
2000
1874
1843
2139
2008
1887
1530
1494
2433
2919
1882
1446
1735
1769
1801
2349
2370
1956
2029
2412
2347
2515
2310
2029
2069
2076
2037
2260
2328
2368
1995
1961
2061
1998
1641
1189
1599
2234
1730
1667
2247
2754
2494
2019
2006
2386
2410
1864
1297
1638
1782
1586
1995
2696
2591
2357
2210
2076
2095
1922
1607
2066
1966
1767
1974
1971
1895
2019
2231
2250
1504
1032
1418
2271
2804
2885
2510
2273
2163
2040
2460
2895
2255
2050
1533
774
1055
1793
2134
2244
2166
2040
2016
2449
2336
2370
2735
2129
1709
2213
2048
1943
1901
1940
1945
1914
1790
1714
1906
2216
2397
2693
1956
1265
1546
1772
1740
2095
1950
1536
1953
2523
2512
2586
2486
2704
2709
2153
1819
1843
1691
1806
1932
1985
1625
1641
2363
2809
2853
2420
1076
827
1528
1880
2189
2360
1974
1979
2218
2594
2856
2531
2021
1937
1977
2045
1423
1160
1932
2307
2158
2145
1929
2184
2483
2292
2069
2258
2163
1662
1719
2297
1929
1767
2027
1877
1974
2552
2158
1572
2168
2552
2142
2213
1995
2090
2575
1604
475
1470
2481
2234
2187
2468
2053
1536
1593
2460
2851
2302
1937
2147
2218
1961
1523
2095
2554
2139
2321
2336
1313
1050
1704
2376
2418
2292
2095
1919
2210
2565
2074
1536
1515
1898
2003
2192
2336
1937
1696
1985
2255
2384
2134
2237
2326
1809
1334
1588
2061
2373
2617
2987
2533
1502
1061
1735
1872
1830
2502
2271
1906
2399
2229
2006
2126
2365
2347
2074
1922
1507
1042
1496
2126
2420
2386
2410
2376
2092
1885
2218
2344
1817
1838
2520
2200
1848
1903
1861
2050
1890
1877
2239
1822
1853
2176
2076
2218
2326
2121
2058
1992
1898
1827
1861
1890
1924
2168
2583
2092
1572
2124
2531
2155
1877
1953
2076
1649
1499
2061
2462
2378
2118
2129
2420
1998
1866
2250
1943
1790
1880
1688
2019
2176
2305
2300
1691
1481
1982
2116
2328
2468
1992
1764
1987
1985
2286
2596
2315
2210
2452
2252
1932
1591
1373
1593
2050
2368
2625
2145
1444
1667
1887
1515
2079
2861
2407
1793
1856
2027
1927
1746
2363
2909
2520
1943
1843
1748
1596
1809
1906
1706
2363
2969
2255
1662
1843
1982
2139
1864
1953
2586
2271
1517
1486
1725
2239
2418
2113
2460
3079
2360
1318
1152
1709
2381
2418
1887
1530
1654
1916
1914
1937
2276
2956
2701
1822
1935
2279
2050
1714
1596
2134
2591
2218
1662
1801
2202
2223
2016
2008
2284
2391
1756
1129
1415
2420
2617
2176
2402
2313
1656
1599
1754
2181
2496
1780
1357
2342
2478
1772
2284
2536
1822
1940
2229
2234
2347
1945
1362
1502
1998
2436
2544
2242
2040
2116
1709
1504
2176
2688
2244
1751
2071
2389
1761
1431
1830
2279
2310
2179
2294
2218
2134
1932
1397
1767
2084
1969
2286
2252
1830
1796
1922
2019
2384
2641
2428
2465
1961
1139
1257
1567
1916
2342
2712
3247
2394
1210
1538
2289
2657
2242
1759
1840
1822
2053
2132
2050
2108
1979
1964
1966
2239
2365
1441
887
1659
2662
2691
2352
2431
2307
1987
1785
1680
2024
2124
1809
1751
2294
2738
2489
2050
1895
1806
1604
1604
2158
2258
1843
1722
1885
2352
2499
2336
2567
1995
1239
1512
2019
2373
2268
2013
2168
2069
1866
1901
2268
2412
2066
1916
1633
1811
2307
2074
2027
2160
2202
2045
1491
1706
2349
2239
2050
2428
2541
1982
2000
2250
1796
1544
1817
2132
2132
2095
2208
2229
2268
2126
2100
1945
1612
1719
1748
2179
2620
2223
1895
1601
1685
2058
1911
2111
2244
1814
1987
2549
2596
2142
1864
1943
1937
2013
2013
2092
2016
1528
1906
2641
2901
2675
2032
1559
1491
1916
2315
2202
1793
1344
1591
2273
2420
2457
2454
1656
1194
1693
2431
2772
2454
1974
1985
2105
2090
2155
2097
1838
1809
1709
1670
1971
2134
2137
1945
1769
2250
2418
2092
2079
2423
2638
2465
2139
1948
1979
1801
1221
1596
2145
1869
1948
2216
2126
2011
1977
2113
2286
2307
2166
2386
1950
932
1491
2523
2654
2557
2370
2297
1843
1444
1961
2384
2352
1935
1103
1360
2045
2129
2412
2313
2097
2166
1730
1688
2478
2670
2237
1782
1491
1738
2027
2179
2523
2741
2722
2192
1541
1811
2129
1756
1454
1772
2244
2197
2310
2517
2066
1680
1675
1877
2187
2289
2021
1410
1252
1924
2439
2588
2751
2730
2426
1872
1530
1735
1596
1391
1998
2562
2622
2520
2021
1368
1478
2134
2273
2200
2305
2066
1551
1733
2384
2588
2407
2155
1866
1509
1378
1769
1979
2024
2234
2688
2964
2331
1943
2160
1961
1748
1887
1932
1775
1651
1683
1843
2454
2827
2441
2008
1722
1911
2116
1848
1859
2000
1964
1675
1675
2570
2717
2090
1969
1809
1861
2174
2300
2205
2163
2197
1914
1607
1691
2074
2441
2029
1869
2342
1911
1410
1880
2657
2877
2468
2208
2029
1667
1368
1798
2536
2468
2103
1845
1517
1554
1832
2200
2389
2187
1717
1423
1667
2082
2273
2502
2544
2405
2557
2712
2402
1953
1376
995
1452
2168
2063
1932
2050
2160
2263
2074
2250
2759
2260
1415
1659
2297
2008
1588
1853
2344
2363
1819
1822
2418
2195
1958
2121
2076
1950
1911
2412
2620
2145
1885
1704
1722
1743
1814
2289
2237
1927
2000
2323
2412
1880
1803
1932
1767
1908
2160
2234
2163
2063
2058
2142
2258
2027
1953
2011
1827
1929
2171
2281
2276
1961
1914
2158
2255
2013
2003
2132
1777
1806
2208
2155
2097
1948
2244
2276
1630
1806
1908
1428
1596
1998
2331
2276
2095
1995
1848
2019
2328
2586
2772
2777
2570
1709
1255
1562
1956
2326
2213
1943
1767
1373
1767
2289
2365
2273
2111
2153
2061
1874
1803
1864
2223
2066
2292
2979
2423
1310
1229
1982
2475
2292
2155
2100
2153
1880
1512
2024
2552
2163
1830
1877
1945
1964
2208
2234
2124
2011
1872
2103
2079
1467
1659
1906
1362
1614
3019
3292
2137
1772
2192
2150
2399
2557
2323
1898
1572
1562
1824
2142
2158
2229
1953
1226
1530
2213
2457
2242
2092
2328
2126
1969
2129
2218
2780
2084
921
1418
1956
1832
2095
2342
2226
2153
2373
2116
2074
2659
2696
2174
1457
1223
1890
1948
2069
2557
2423
1953
1672
1754
2153
2237
2037
1614
1334
1509
2076
2517
2515
2292
2260
2197
2142
2202
2239
1950
1880
1788
1814
2250
2260
1961
2105
1990
1814
1803
1943
2121
2118
2195
2226
2163
2344
2126
2105
2250
2137
1906
1614
1460
1677
1887
2048
2142
2743
2861
2137
1704
1654
1706
2040
2242
2213
2055
2008
1824
2027
2483
2449
2292
2307
2011
1746
1504
1691
1861
1701
1509
1609
2231
2691
2439
2578
2544
2139
1882
2053
2339
2439
1935
956
874
1969
2418
2200
2121
2378
2276
2090
2433
2583
2058
1740
1638
1696
1746
1961
2097
2050
2205
2481
2415
2300
1985
1853
1874
1990
2048
1887
1845
2163
2370
2111
1593
2050
2334
1788
1943
2452
2058
1809
1943
1924
1851
2000
1943
1806
1895
2281
2318
2276
2103
2132
2633
2612
1929
1932
2042
1785
1415
1307
1667
2342
2260
2118
2315
2242
1958
1958
1953
1977
2105
2247
1898
1777
2265
2861
2402
1614
1683
2160
1735
1404
2168
2754
2315
2071
2087
2244
2181
2013
1982
1953
1919
2111
1822
1856
2163
1945
1861
2297
2407
2205
1788
1861
1998
1885
1845
2092
2108
2021
2334
2641
2071
1722
1822
1872
1819
2090
2292
2271
2244
2210
1937
1798
1622
1919
2069
2061
2179
1922
1877
2045
1995
2457
2318
1929
1796
2111
2940
2607
1307
1260
1814
2192
2223
2559
2843
1916
643
1294
2659
2696
2027
1819
1528
1717
2210
2641
2696
1830
1218
1591
1845
2386
2777
2756
2289
1932
1945
1927
1935
2179
2134
2216
2071
1706
1189
1326
1882
2155
2502
2580
1903
1919
2153
2305
2121
1922
2481
2578
1769
1822
2355
2473
1806
1593
1911
2134
1992
2045
2260
2339
2189
1570
893
1625
2365
2302
2210
2321
2066
1643
1814
2588
2567
2231
2063
2326
2197
1612
1840
2090
1559
1662
2197
2638
2111
1706
1956
1937
1943
2118
1969
1843
1638
1958
2412
2489
2255
2365
2473
2126
1809
2286
2402
1943
1347
1362
1512
1630
2137
2706
2525
2103
2137
2580
2258
1919
2024
2006
1565
1625
2279
2460
1777
1572
1822
2229
2242
2242
2260
2040
1767
1764
1801
2192
2494
2478
2019
1893
1843
1819
2103
2376
2147
2029
1948
1958
1664
1908
2478
2150
1790
2066
1948
2132
2195
2008
2328
2567
1848
1517
1706
1751
1940
2105
1756
2339
2604
2252
2499
2562
1995
2011
1974
1714
1509
1738
1672
1449
1995
2772
2475
2121
2260
2486
2158
1848
1880
2048
1693
1407
1901
2415
2202
2315
2365
2195
2095
1998
1593
1869
2310
2187
1948
2092
2097
2121
1798
1908
2321
2310
2213
2260
1977
1817
1415
1496
2100
2307
1950
1908
1908
2084
2048
2003
2076
2032
2055
2428
2510
2552
2024
1467
1533
1974
2336
2491
2076
2105
2174
2055
2460
2630
1775
1444
1730
2255
2360
2074
2071
2205
1646
1239
1620
2305
2431
2444
2226
1843
1709
1509
1383
2352
2727
2158
1845
2095
2150
1966
1853
1974
1956
2268
2696
2935
2407
1386
866
1302
1533
1793
2423
2822
2633
2470
2489
2615
2187
1969
2271
2281
1656
1339
1286
1557
1712
1830
2271
2867
2499
2090
2158
1851
1538
1977
1956
2082
2315
2129
2027
2237
2066
1948
2024
2208
2090
2024
2153
2021
1607
1822
2176
2604
2481
1604
1289
1880
1992
2328
2494
2000
1948
2113
1683
1885
2163
2003
1662
1785
2339
2759
2342
1901
1785
1722
1670
2226
2489
2181
1935
1995
1832
1798
2286
2903
2636
2166
1811
1754
1830
1838
1803
1809
1851
2105
2024
2465
2638
2069
1746
1798
2118
2541
1893
1376
1544
1830
2103
2549
2433
2349
2373
2074
2124
2370
1817
1583
1607
1785
2050
2244
2289
2160
2045
2370
2229
1803
1166
1331
2032
2179
2137
2218
2221
2334
2402
2783
2651
2231
1667
1158
1158
1672
2100
2273
2168
2297
2210
2210
2202
2349
2468
2163
1838
2092
1898
1748
2097
2263
1880
1730
1943
2208
1964
1617
1733
2058
1898
2145
2423
2360
2069
1927
2032
2034
2108
2318
1704
1971
2470
2147
2019
2355
2386
1916
1544
2071
2313
2055
1486
1698
2265
1803
1462
2512
2969
2242
1722
2061
2168
2053
1790
1733
1817
1617
1601
2331
2237
1937
2137
2370
2384
2405
2570
2567
1677
1255
1746
2218
1880
1672
2013
2315
2111
2281
2184
1601
1706
2441
2433
2397
2221
2027
1740
1334
1533
2271
2468
2436
1964
1798
1840
1614
1719
2155
2273
2557
2334
1840
1864
2549
2565
2082
2003
2315
2552
2441
1796
1649
1465
942
1268
2360
2525
2302
1992
1748
1735
2166
2914
2940
1998
1916
2082
1908
1798
2055
2019
1494
1336
2150
2260
1712
2145
2759
2082
1919
2176
1803
1378
1919
2570
2848
2515
2011
1977
2090
1908
2294
2300
1874
1882
2111
1373
1155
2027
2420
2252
2363
2342
2318
1840
1578
1777
1887
1740
1882
1974
2323
2449
2158
1901
2163
2496
2609
2342
2095
1819
1859
1869
1877
1704
1415
1696
2363
2137
1866
2045
2318
2184
2328
2538
2489
1856
1352
1775
2583
2536
2000
1604
1449
1441
2273
2895
2809
2520
2268
1945
1824
1782
2095
2108
1887
1454
1305
1622
1971
2137
2352
2237
2389
2331
2118
2042
2069
1740
1418
1562
2076
2189
2292
2218
2213
2037
1969
2454
2612
1985
2126
2237
1780
1504
1793
2076
2268
1987
1806
2045
2294
2095
2126
1971
1927
2139
2279
2045
1817
1803
1893
1859
2113
2189
2407
2349
2263
2397
2268
1696
1651
1911
2265
2192
1969
1856
1809
1457
1654
2468
2538
1614
1945
2336
1908
1709
1819
2378
2809
2216
2323
2510
2284
1977
1974
2124
1911
1439
1782
2108
1950
1780
1990
1911
2042
1932
1969
2536
2276
1614
1943
2050
2074
2040
2116
2103
1853
1512
1777
2116
2339
2441
2683
2397
2019
2189
2268
1817
2042
2200
1769
1452
1604
1790
2126
2024
2229
2349
1672
1347
2050
2499
2890
2937
2546
1803
1620
1901
2061
2284
2468
1628
866
1126
2011
2315
2323
2486
2499
2208
2250
2313
2242
1339
1100
2187
2819
2108
1567
1677
2084
2250
2082
1932
2504
2525
1908
1777
2475
2604
1378
704
2105
2848
2139
1496
1730
1971
2021
2221
2436
2292
2281
2003
2074
1998
2045
2809
2541
1546
2113
2357
1748
1536
1725
1567
1633
1874
1966
2037
2258
2129
2179
2145
2444
2790
2525
2168
2000
1625
1575
1607
1956
2255
2357
2103
1979
2040
2050
2121
2176
1964
2326
2184
1958
2003
1622
1383
1872
2160
2426
2328
2163
2103
1945
1788
2118
1843
1481
1796
2420
2814
2420
1281
1383
2184
2407
2384
2754
2714
2108
1583
1625
1680
1743
1583
1801
2344
2596
2142
1475
1530
2515
2759
2402
2000
1893
1953
1966
1924
1982
1628
1465
2105
2890
2867
2691
1882
1040
1423
2334
2418
2439
2150
1740
1612
1890
2082
2142
2160
2079
1709
1893
2189
2378
1927
1536
2032
2368
1961
2216
2420
1979
1423
1740
2397
2612
1998
1775
2281
2292
1885
2153
2307
2132
1746
1948
2360
2189
1423
1320
1953
2124
1806
2239
2415
2113
2197
2583
2381
2242
2244
2273
2008
1827
1740
1651
1614
1911
2108
2260
2008
1790
1801
2055
2042
1995
2239
2667
2239
1410
1420
2205
2315
2092
2137
2436
1635
1066
2087
2714
2397
2525
2436
2302
1932
1814
1845
1549
1722
2315
2066
1691
1777
2213
2076
1950
2179
2252
1945
1916
2137
2420
2189
1838
1683
1882
2205
2575
2289
2045
2244
2153
1877
2174
2126
2189
2111
1712
1817
1898
1677
1853
1788
2011
2457
2646
2368
2158
2223
2037
1583
1793
1940
1559
1567
2349
2573
2405
2242
2252
2268
2006
1819
2265
1927
1252
1488
2168
2258
2305
2389
2153
1869
2097
2121
2058
1856
1727
1704
1777
2071
2405
2470
2465
2116
2271
2260
2048
2250
2103
1593
1404
1370
1824
2321
2536
2252
1916
1641
1887
2181
2284
2300
2260
2250
2134
1551
1843
2286
2229
2302
2583
2496
1859
1171
1176
1504
2234
2174
1662
2095
2441
2069
2310
2407
2284
2189
1866
1890
2426
2221
1709
1583
1893
1845
1754
1995
2187
2063
1979
1869
2082
2407
2615
2756
2945
2300
1908
2174
1950
1830
1969
1402
1116
1103
1439
2389
2874
2494
2402
2187
1966
2116
2160
1940
2189
2155
1767
1622
1890
1969
2013
2286
2349
1961
1882
2021
2376
2279
1772
1843
2019
1990
2381
2090
1570
1360
1242
1851
2785
2696
2549
2357
2176
2352
2531
2313
1964
1880
1966
1830
1788
1614
1801
2273
2313
2090
2134
1601
1281
1798
2100
2090
2286
2334
2373
2048
2029
2139
1725
1533
2360
3014
2336
1339
1483
1803
2084
2331
2344
2310
1806
1244
1872
2657
2785
2431
2137
2134
2155
1929
1893
1919
1722
1410
1767
2286
2210
2063
2349
2439
2082
1927
2171
1864
1641
1932
2265
2137
1801
1922
2179
1916
2061
2504
2318
1509
1431
2247
2507
2223
2331
2389
2160
1759
1964
2302
2103
1696
1536
1591
1649
1832
2276
2481
2399
2147
2181
2265
2163
2040
2013
2066
2292
1937
1399
1599
2247
2368
2289
2496
2460
2082
1830
1680
1998
2226
1803
1554
1956
2100
1885
1704
1502
1832
2683
2499
1987
2145
2373
2226
1927
2008
2200
1859
1761
2265
2588
2108
1677
1717
1777
1877
2027
2097
2342
2176
2100
2244
1932
1985
2407
2250
2076
2263
2045
1281
1559
1987
1903
2412
2546
2171
2000
1688
1641
1727
1953
2297
2192
1780
1764
2221
2609
2423
2244
2105
1895
1990
2286
2095
1709
1738
1971
2363
2767
2465
1998
1788
1798
1769
1664
1843
1948
1803
2095
2573
2706
2021
1512
1756
1935
2229
2491
2255
2027
1856
1817
1704
1927
2502
2641
2118
1407
1318
1706
1756
1919
2273
2321
2158
2082
2397
2911
2517
1796
1651
2063
2297
1998
1890
1814
1565
1759
1974
1945
2063
2483
2596
2496
2394
2048
1593
1509
1887
2244
2116
1903
1704
1782
2132
2460
2678
2370
1775
1937
2132
1793
1788
2050
1861
1533
1664
2053
2155
2042
1738
1654
1922
2090
2108
2305
2412
2423
2496
2331
2058
2239
2208
2024
2181
2402
2297
1775
1801
2258
2045
1764
1675
1830
2147
2092
1869
1814
1793
1995
2344
2342
2181
2111
1727
1635
2263
2436
1956
1893
2045
2192
2218
2111
2029
1835
1948
2218
2019
1767
1872
2286
2483
2368
2305
2129
1751
1628
1843
2121
2260
2042
1512
1701
2218
2042
1971
2370
2486
2168
2029
2163
2037
1887
1793
1851
2045
1906
2310
2691
1845
1601
2000
2063
2103
2168
2252
2084
1801
1856
2061
2328
2310
2153
2242
2111
1693
1630
1790
1830
1780
1838
2252
2667
2342
2263
2565
1898
1349
1517
1777
2370
2205
1906
2250
1977
1971
2478
2357
2082
2079
2271
2118
1554
1515
1945
2069
2208
2436
2378
2260
1859
1483
1656
1714
1814
2189
2271
2389
2418
1819
1672
2116
2208
2268
2575
2483
1971
1722
2116
2412
1869
1386
1709
1945
1683
1704
2179
2328
2113
1961
2008
2415
2662
2147
1570
1683
2229
2384
2153
2331
2609
2268
1782
1950
1966
1483
1596
1995
2053
2142
2200
2244
2195
2218
2496
2263
1407
914
1370
2397
2591
2160
2158
1979
1885
2218
2423
2657
2229
1370
1444
2024
2171
1856
1796
2279
2515
2286
2066
2063
2082
1982
1759
2147
2515
1588
990
1806
2297
2045
2090
2376
2334
2076
2234
2499
2189
1730
1746
1827
1418
1580
2583
2428
2013
2483
2481
2108
1796
1956
2462
2454
2244
2045
1691
1533
1811
2150
2197
2407
2187
1087
945
1803
2260
2252
2242
2402
2305
2247
2489
2302
1735
1536
1971
2331
2189
2202
2095
1544
1360
2027
2832
2685
2250
1974
1769
1882
1845
1759
1793
1793
1992
2155
2108
2092
2155
2150
2132
2428
2386
1880
1714
1672
1803
2158
2252
2273
2226
2108
2134
2197
2074
2076
2174
1927
1638
1630
1835
2397
2688
2475
2221
1822
1202
1278
2105
2418
2118
2184
2405
2260
1874
1932
2378
2210
1887
1945
1869
1580
1026
1284
2368
2717
2693
2712
2331
2160
2126
1730
1475
2168
2517
1932
1817
2045
2040
2103
2029
2084
2250
2124
1998
2061
2058
2187
2074
1512
1551
2260
2517
2281
1956
1806
1924
1898
1735
2021
2305
2496
2565
2276
1806
1780
2006
1880
1767
1840
1864
1953
1740
1869
2494
2489
2050
1985
2344
2307
1670
1491
1635
1911
2084
2121
2410
2313
1985
2321
2607
2654
2525
2090
1641
1546
1767
2003
2216
2305
1814
1370
1313
1743
2449
2489
2310
2210
1987
2195
2271
2239
2412
2347
1769
1436
1733
2042
2053
1916
2092
2294
1719
1806
2654
2562
1927
1735
1811
1874
1885
2515
2867
2242
1420
1347
1851
2050
2134
2218
1835
1845
2108
1961
1793
2410
2853
2118
1712
2307
2336
1935
1654
1887
2265
1911
1583
1922
2092
1958
1916
2008
1785
1890
2494
2680
2462
2247
2181
2163
1769
1709
2016
2313
2000
1449
1714
2160
2053
1845
1971
2457
2297
2160
2399
2271
2074
2079
1977
2124
2313
2187
1927
1614
1089
1331
2158
2313
2166
2147
1964
2066
2061
2139
2368
2439
2276
1977
2019
2013
1730
1890
1872
2090
2399
2013
1688
1851
2158
2405
2171
2168
2250
2166
2055
1885
1964
2234
2179
2226
2050
1798
1901
1898
1864
2599
2772
1838
1302
1638
1982
2168
2076
2040
1929
1990
2181
2244
2105
1819
1677
2132
2202
2195
2263
1712
1234
1706
2247
2229
2074
2174
2032
2231
2538
2494
2129
1756
1580
1914
2132
2082
2174
2268
1927
2042
2271
2226
2223
2250
2265
2378
1761
1257
1315
1376
1452
1974
2410
2528
2349
2071
2032
2536
2567
2412
2347
2084
2008
1908
1607
2092
2352
1880
1462
1504
1788
2208
2013
1761
2074
2457
2373
2349
2286
2344
2145
1906
2079
2326
2147
1638
1320
1475
1520
2003
2200
2124
2360
2097
1693
2029
2302
2874
2906
2234
2195
2260
1481
1559
2307
1853
1226
1704
1906
2019
2247
2289
2265
2265
1961
1919
2168
2213
2076
2258
2129
2061
1987
1916
2003
2058
2139
2229
1851
1932
1953
1769
1958
1992
1722
1992
2205
2208
2210
2481
2313
1853
1903
2208
1940
1890
1961
2100
2076
1761
1512
1929
2108
2192
2617
2932
2604
1953
1488
1811
2013
2095
1919
1785
2082
2032
1549
1956
2384
2273
2074
2221
2202
1861
1672
2063
2145
2181
2006
1987
2200
2216
2063
2021
1945
2003
1882
2090
2242
2045
1418
1478
2226
2499
2040
1748
1911
2179
1882
2055
2405
2321
2158
2223
2410
2586
2323
2050
1630
1814
2074
2074
2134
2223
2116
1817
1507
1546
1625
2137
2439
2244
1924
1819
1751
2040
2189
2486
2793
2368
1667
1880
1924
1785
2074
2255
2029
1811
1712
2239
2412
2357
2132
1717
1856
2111
1919
2234
2153
1746
1649
2053
2588
2819
2105
1397
1449
1838
1864
2066
2090
1874
1835
2218
2147
2181
2573
2538
2258
2315
2181
1987
1383
1320
1866
2307
2473
2457
1966
1832
1756
1759
2082
2368
2121
1966
1929
1895
1914
2045
1769
1961
2218
2318
2607
2565
1696
1612
2071
2389
2625
2528
1803
1286
1378
1961
2087
2066
2011
1940
1956
2100
2116
2205
1937
1901
2244
2402
2184
2150
2090
2113
2058
2084
2087
2111
2097
1987
1767
1922
1882
2129
2265
1990
1859
1853
1754
1998
2142
2244
2069
2048
2229
2344
2237
2139
2132
2242
1893
1919
2113
2079
1985
2195
2244
1869
1538
2011
2210
1929
1698
1809
1922
2134
2168
2276
2158
1667
1460
2029
2221
2121
2237
2596
2399
2103
2139
2160
2221
2315
1785
1780
1824
1722
1874
1979
2003
2113
1922
2066
2334
2759
2559
1662
1250
1607
1914
2223
2223
2433
2328
1643
1021
1433
2118
2541
2289
2071
2331
2202
1764
2139
2265
2397
2342
1848
1788
2040
1966
2042
1819
1893
2116
2195
1987
1853
2158
2452
1950
1788
1924
2181
2105
1945
2187
2588
2583
2200
1688
1785
1929
1906
1467
1709
2365
2352
2066
2247
2381
2281
2061
2318
2538
2302
1680
1504
1601
1641
1830
2184
1756
1523
1643
2055
2384
2331
2426
2483
2132
2192
2034
2187
2562
2402
1861
1418
1339
1735
1830
1945
2307
2565
2271
2042
2016
2328
2381
2042
2011
2323
2076
1869
1696
1759
1882
1914
2006
1979
1827
1890
1901
2252
2307
2263
2237
2158
2160
2237
2258
2433
2163
2024
1696
1328
1572
1971
1866
2124
2368
2058
1929
2323
2381
2546
2447
1956
1643
1423
1334
1927
2276
2174
1985
2263
2195
2155
2452
2281
1935
2011
1782
1877
1958
1992
2082
2050
1995
1890
1824
2142
2121
2082
1890
1982
2313
2460
2294
2454
2431
1790
1320
1701
1961
2092
1874
1937
2271
2286
2092
2082
2208
2355
2029
2134
1992
1764
1903
1869
1903
2229
2050
1985
2006
2155
2197
2200
2252
2263
2024
2160
2202
2129
1916
1675
1709
1966
1977
2318
2604
2457
1887
1562
1575
1864
1788
1950
2181
1796
1496
1822
2302
2775
2473
2512
2562
1788
1166
1554
2090
2108
1806
2197
2468
2326
2116
2160
2132
1950
1880
2226
2208
2095
1832
1593
1730
1969
2024
2307
2226
2174
2297
2166
1950
2100
2006
2095
2292
2197
1848
1696
1659
1864
1903
2129
2184
2363
2557
2538
2491
2042
1271
1407
1712
2034
2252
2276
2019
1751
1801
2137
2163
2166
2013
2111
2153
2082
2016
2006
1691
1717
2292
2607
2265
2218
1961
1845
1977
1890
1874
2334
2394
2195
2090
2084
1874
1869
1817
1801
1943
1985
1769
2082
2405
2525
2255
2095
1950
1827
2113
2213
1864
1924
1798
1761
1683
1843
2234
2517
2622
2468
2221
2244
1373
1074
1859
2352
2234
2006
1838
1835
1646
1932
2468
2846
2507
2142
2103
2263
2011
1698
1801
2184
2244
2171
1777
1696
1848
2003
2160
2578
2525
1898
1530
1759
1767
1874
1890
2053
2415
2457
2250
2405
2179
1898
2008
2171
2097
2027
1751
1929
2139
2069
2037
2208
1979
1908
1961
2042
1945
1877
1958
1848
1649
2124
2281
2271
2113
2034
2003
1756
1643
2092
2433
2559
2286
2478
2573
2163
1885
2011
1982
1927
1838
1977
2071
1937
1588
1764
1851
1793
1927
2234
2310
2063
1898
2008
1775
2013
2200
2294
2260
2037
2376
2596
2000
2095
2042
1835
1953
2050
2129
1974
1376
1412
1772
2239
2378
2368
2391
2271
2084
2195
2079
1977
1790
1809
1924
2055
1877
1782
1822
2213
2559
2517
2331
2441
2153
2032
2058
2176
2174
1817
1446
1528
1391
1651
2055
2360
2418
2258
2184
2202
2084
2504
2554
2087
1565
1331
1389
1827
2008
1966
1901
2229
2381
2475
2578
2643
2126
1796
1790
1922
1987
1853
1733
1995
1945
2315
2628
2192
1832
2011
1937
2037
2218
2273
1929
1901
1943
1780
1937
2331
2142
1940
1754
2113
2223
1761
1743
2252
2300
2121
2113
2381
2116
1654
1376
1667
2108
2208
2132
2339
2286
2187
1971
2008
2258
2465
2357
2423
2281
1803
1578
1693
1654
1961
2024
1874
1772
1840
2019
2192
2100
2168
2142
2074
1992
2208
2237
2174
2055
1995
1950
2061
1848
1866
2003
2139
2040
1822
1853
2247
2279
2221
2297
2680
2473
1950
1756
1929
1670
1523
1817
2197
2100
2069
2108
2163
2158
2247
2223
2300
2126
2003
1958
1987
1927
2150
2171
2063
1964
1856
1664
1740
1814
2027
2048
2097
1893
1961
2328
2528
2334
2231
2195
2066
1775
1882
1945
2113
2082
1848
1814
2129
1916
1838
2095
2179
2016
2163
2137
2139
2349
2292
1919
2034
2079
2087
2019
1903
1877
2189
2082
1922
2055
1992
1593
1643
1924
2302
2019
1614
1706
2013
2247
2460
2300
2452
2391
2200
2029
2063
2145
2124
2079
2195
2097
2174
1877
1504
1486
2019
2342
2158
1956
2357
2349
1877
1544
1851
2121
1995
1675
1864
2087
1908
1782
2294
2460
2428
2433
2381
2202
2113
1943
1827
1738
1985
1977
2071
2121
1922
2013
2168
2032
2174
2003
2053
2176
2100
1945
2013
2003
1919
1877
1932
1880
2034
1971
2153
2294
1903
1649
2132
2260
2210
2381
2486
2019
1798
1796
2024
2284
2092
1916
2197
1940
1801
1851
1864
1992
2368
2355
2034
1995
2019
1706
1924
2032
2084
2050
1995
2118
2103
1856
2244
2525
2263
2058
2318
2176
2040
2092
2082
1914
1754
1593
1851
2142
2237
1906
1698
1691
1754
1869
2084
2097
2294
2226
2213
2310
2302
2116
2063
2142
2100
1901
2126
2181
2139
2003
1869
1943
2273
2279
2276
2124
1772
1638
1838
1864
2153
2160
2132
2355
2260
2097
2255
1788
1483
1659
1882
2003
2160
2121
2121
2226
2271
1895
1966
2174
2079
1953
1782
1725
2000
1971
2126
2271
2226
2202
2181
2071
2187
2221
2139
1908
1929
2074
2237
2150
2097
2069
1688
1394
1444
1559
2265
2678
2523
2242
2234
2273
2132
1990
2113
2142
2179
2006
2000
2013
1785
1672
1924
2265
2557
2197
1499
1202
1738
2061
2171
2349
2263
2160
2279
2252
2171
1911
1817
1635
1633
2158
2599
2271
1903
2092
2389
2137
2045
2076
2113
2166
1937
1656
1567
1622
1922
2076
2334
2326
2069
1872
1832
2168
2573
2344
2200
2239
2092
1877
2003
2045
1851
1877
1945
1814
2084
2179
1998
1945
2066
1964
1966
2355
2405
1929
1861
1966
2045
1943
1987
2195
2019
1733
1903
2121
2019
1780
2063
2468
2447
2286
2465
2360
1806
1557
1806
1985
2000
1974
2071
2108
2124
2034
1916
2034
2289
2137
2105
2158
1840
1593
1769
2037
2344
2373
2137
1966
2032
1990
2011
2234
2218
2076
2171
2126
2142
2189
2063
2111
2229
1919
1693
1670
1578
1819
2116
2024
2087
1956
1985
2310
2302
2234
2147
2055
2163
1922
1790
1911
2079
2163
2105
2279
2418
1982
1835
2166
2373
2090
1722
1691
1740
1824
2011
2058
2084
2103
2032
1998
2244
2055
1838
1916
1861
1982
1990
1998
2168
2000
2229
2504
2426
2244
2019
2074
2247
2153
2142
1950
1701
1672
1950
2292
2310
2239
2069
1633
1811
2187
2040
1982
1979
1772
1827
2111
2289
2247
2210
2139
2163
2092
1971
1940
1992
1932
1638
1746
2142
2116
2137
2158
2229
2258
1982
2176
2552
2116
1641
1454
1709
2082
2108
2234
2339
2008
1688
1809
2084
2134
2071
2050
2168
2171
2113
2126
2195
2271
2166
2242
2407
1906
1743
2084
2071
2029
1958
1927
2100
1977
1943
1885
1767
1777
1612
1845
2255
2221
2234
2242
2210
2216
2163
2189
2334
2142
1935
2027
1943
1824
1929
2008
2000
1872
1782
1961
2137
2100
2153
2202
2121
2116
2168
2055
2024
2168
2229
2247
2145
1835
1869
1987
1969
2034
2090
2027
1874
1851
1948
2045
2168
2184
2223
2200
2042
1827
1654
1761
2045
2155
2105
2016
2158
2260
2184
2163
2034
1885
1811
1809
2118
2334
2184
1895
1992
2226
2174
2323
2357
2066
1922
1746
1872
2147
2087
2181
2279
2037
1906
2021
2003
1969
2079
1992
1937
1958
1961
2008
1987
2153
2176
1698
1570
1748
1861
2255
2436
2370
2428
2168
1982
2069
2147
2276
2147
1803
1843
2090
2037
1974
2100
2205
2179
1948
1840
1843
1680
1788
2000
2105
2360
2328
2066
1995
2034
2084
2134
2042
1940
1969
1922
2061
2239
2040
2058
2163
1943
1948
2137
2108
2040
2087
2113
2155
2187
2040
2205
2331
1911
1817
1998
1722
1785
2344
2407
1987
1677
1604
1782
2171
2268
2344
2423
2011
2003
2292
2105
1924
1872
1866
1937
1924
2103
2124
1851
2013
2286
2289
2231
2071
1898
2048
2069
1814
1935
2116
2082
2237
2179
2113
2074
1785
1777
1998
2108
2006
1985
2160
1964
1866
1945
2108
2310
2216
2420
2412
1793
1751
2071
2108
2139
2121
1977
1864
1677
1725
2166
2318
1932
1974
2200
2147
2192
2105
2132
2134
1843
1992
2276
2357
2103
1633
1486
1651
1919
2095
2268
2436
2210
2145
2189
2160
2344
2247
1932
1861
1788
1775
1882
2053
1987
1895
2040
1943
1819
1979
2192
2258
2048
2095
2050
1998
2168
2053
1974
2132
2226
2195
2032
2029
2016
2021
2034
2113
2360
2179
1727
1775
1887
2063
2242
2139
2097
2029
2029
2234
2168
2090
1990
1822
1895
2097
2055
2058
2029
1798
1806
1943
1832
1919
2126
2216
2176
2216
2247
2063
2042
2124
2132
2147
1843
1990
2289
2137
2181
2263
2255
2265
2034
2016
1885
1722
1790
1824
1898
1950
1898
2055
2021
2061
2134
2053
2168
2100
1848
1987
1985
1964
2174
2321
2281
2223
2034
1995
2189
2252
2124
1937
1869
1961
1950
2208
2187
1950
2105
2111
2087
2100
1772
1793
1882
2034
2229
2037
2042
1882
1538
2040
2244
2095
2090
1872
1995
2352
2205
2187
2370
2300
2137
2155
2095
1851
1578
1775
2071
2079
1948
1869
2006
2276
2111
2147
2174
1956
2055
2226
2213
2163
1895
1775
1861
2079
2032
1793
1656
1730
2074
2378
2258
2213
2134
2121
2276
2465
2397
2103
1845
1796
1919
2192
2095
2029
2048
1895
1877
1995
1937
1872
1835
1998
1966
2016
2082
2003
1924
2048
2363
2357
2079
2297
2121
1961
2084
1998
1964
1935
1895
2163
2105
1985
2037
2092
2042
2139
2237
2121
1974
2097
2055
1935
1901
1864
1848
2034
2163
2265
2069
1869
1974
2171
2132
2066
2006
2095
1916
1693
1840
2042
2034
2163
2263
2510
2410
2019
2058
2160
1961
2011
1914
1811
1830
1971
1950
1971
2155
2208
2124
2208
2166
2079
1969
2058
1971
1937
2050
2024
2029
2032
1906
2087
2045
2032
2223
2231
1971
1877
1998
2061
1977
2129
2076
1940
1751
1725
2048
2365
2176
2006
2108
2336
2139
2050
2150
2160
1943
1885
2055
2168
1956
1919
1956
2090
2231
2216
2019
1945
1853
1911
1924
2003
2205
2326
2129
2082
2013
1979
2055
2147
2147
2150
1887
1696
1625
1990
2284
2195
2029
2019
2100
2111
1929
2116
2176
2126
2166
2281
2234
2003
1832
1769
1685
2034
2058
1943
2029
2050
2032
2092
2066
2260
2347
2336
2158
2121
2013
1869
1817
2011
2181
2150
1964
2000
2013
2158
2087
2016
2176
2187
2006
1971
1840
2045
2013
1840
1746
1935
2105
1992
1977
2258
2113
2021
1974
2000
2252
2313
2100
2187
1929
1843
2024
2003
1935
2168
2095
2006
2095
2124
2087
2121
1982
2016
1985
2160
2174
2132
2155
2090
1945
1961
1890
1982
1979
1935
1843
1995
2011
2029
2139
2250
2105
2066
1977
2071
2058
2024
1937
1927
1990
2118
2061
2058
1987
2027
1819
1809
1887
1990
1974
1832
1969
2494
2460
2402
2370
2281
2150
2008
1964
2226
2163
2171
1950
1835
1945
1956
1916
2113
2092
2087
2082
2113
1880
1932
1977
1927
1995
2145
2071
2213
2179
1990
1953
2134
2032
2061
1966
1898
2024
2011
1722
1956
2142
2129
2016
2108
2027
1979
2027
2092
2040
2181
2063
2076
2016
1995
2013
2090
2142
2158
1979
2239
2279
2137
2116
2147
2134
2179
1890
1961
2019
1814
1767
2029
1974
2000
1966
2084
2126
2069
2113
2250
2000
1953
2084
2276
2105
1819
1751
1966
1971
2003
1982
2181
2150
2027
2176
2412
2271
2202
2063
2113
2040
1948
1824
1898
1979
2013
2003
2116
1932
2016
1995
1929
2092
2163
1937
2142
2113
1898
1890
1777
1761
2300
2258
2205
2121
1919
2008
2105
2013
2326
2192
2006
1982
2019
2029
2113
2069
2097
2084
2029
1861
1935
1793
1822
1990
2040
1932
2137
2250
2229
2197
2268
2134
2273
2247
2239
2181
1853
1630
1785
1922
2160
1929
1982
2095
1869
1901
2271
2265
2252
2016
1914
1911
1987
2053
2166
1990
1953
1982
2069
2121
2113
1932
1895
1609
1685
2000
2399
2544
2334
2166
2208
1961
1979
1914
2076
2258
2027
1819
1961
1806
1788
2042
2468
2470
2344
2181
1990
1788
1730
1859
2339
2189
1903
1859
2000
1987
2092
2142
2158
2174
2079
1985
2200
1901
1759
1693
1570
1964
2321
2150
2286
2326
2221
2013
2210
2273
2008
1943
2108
1990
1922
1777
2034
2239
2113
1977
2100
2139
2090
1940
2113
2066
1895
1819
1961
2061
2095
1924
2029
2158
2168
2113
2189
2024
2058
2111
2244
2252
2084
1937
2019
1882
1885
1859
2063
2181
2069
1911
1929
1919
1958
1832
2168
2420
2147
1895
2090
2208
2155
1908
2027
2076
1943
1830
1953
1801
1872
2069
2166
2373
2389
2124
2289
2181
2090
2053
2105
1987
1680
1646
2006
2084
2111
2084
2355
2181
1895
1859
1906
1990
1990
1943
2339
2174
2032
2171
2137
2055
2176
2053
2019
1890
1706
1499
1824
2137
2118
2132
2378
2279
2079
1971
2118
2105
2132
1964
1945
2000
1956
1982
2142
1992
2145
2163
2145
2187
2281
2239
2092
1759
1667
1756
2079
2103
2042
2011
2181
2155
2013
2027
2284
2189
2029
1916
1929
1777
1622
1612
1995
2289
2415
2284
2244
2090
2053
2058
2189
2189
2142
1985
2111
2118
1950
1890
2105
1992
1982
2069
2192
2097
2008
1935
2034
2003
1987
1969
2129
2066
1914
1859
1982
1848
1950
2066
2208
2239
2213
2158
2155
1950
1895
1788
1882
1935
2032
1995
2176
2239
2124
2090
2231
2218
2271
2100
2097
2092
1908
1654
1869
1908
1824
1937
2184
2076
2116
2189
2234
2066
2134
2286
2326
2150
2016
1845
1746
1446
1530
1895
2229
2226
2216
2197
2195
2116
2234
2160
2239
2189
2042
1880
1916
1995
1908
1827
2121
2090
2192
2273
2105
1977
2150
2040
2042
2129
2063
1864
1935
1866
1953
1922
1940
2137
2255
2079
2069
2027
1998
1906
2150
2284
2268
1995
1764
1798
2076
2218
2252
1977
1856
1827
1859
1866
2218
2286
2103
2181
2370
2108
2087
2027
1919
1914
2124
2252
2284
1927
1775
1935
2113
2000
2139
2184
2160
2042
1906
1940
2181
1964
1929
2053
2076
1966
1780
1654
2187
2268
2116
2195
2260
2090
1971
1992
2163
2079
2129
2016
2037
1977
1903
1893
2021
2137
2223
2024
1974
1932
2071
1961
1987
2244
2305
2037
2145
2150
2000
1780
1906
2111
2200
2079
2097
2032
1924
1887
2048
1927
2074
2168
2205
2069
1922
1882
1979
1887
1995
2126
2258
2055
2008
2037
2027
2029
2124
2147
2300
2216
2218
1956
1929
1950
1932
2074
2092
1974
2074
1901
2040
2013
2003
2024
1956
2011
2176
2063
2097
2058
2032
1950
2103
2058
2090
2013
1851
1995
2181
1948
2129
2150
2058
2116
2242
2097
1987
2082
2255
1924
1890
1982
1990
1848
1940
2255
2237
1898
1945
1843
1966
2069
2100
2124
2247
2090
1953
1914
1982
2118
2405
2142
2021
2008
1916
1901
2108
2171
2142
1961
1964
1893
2187
2258
1953
1895
2116
1919
1856
2034
2105
1817
2079
2223
2084
2076
2145
2139
2221
2042
2124
2158
1995
1906
2210
2079
1885
1929
2061
2097
2147
1992
2021
1877
1950
1990
1861
1948
2137
1974
2058
2105
2294
2208
2105
2237
2273
2150
2168
1979
2008
1877
1790
1814
1845
1971
2202
2021
1932
1971
2139
2129
2179
2158
2103
1950
1969
2050
2210
2195
2126
1982
2071
1987
2034
2006
1908
1974
1979
1738
1922
2042
2111
1945
2066
2313
2229
2100
2197
2090
2121
1898
1940
2218
2153
1890
2061
2029
1929
1969
2132
2016
2082
2053
1974
1953
2037
2024
2108
2113
2221
2252
2313
2097
2087
1985
1851
1922
2071
1995
2011
1937
1874
1654
1772
2029
2189
2197
2187
2129
2226
1982
1927
2118
2313
2111
1974
2021
2042
1964
1992
1943
2090
2103
2137
2103
2155
2084
1998
2034
2116
2082
2305
2013
1861
2006
1966
1969
1958
1819
1924
1840
2155
2237
2100
2103
2090
1982
2042
2118
2307
2153
2158
2166
2118
2021
1919
1901
2058
1966
2121
2174
2087
1950
2008
1924
1953
2082
2027
1977
2071
1751
1764
1940
2142
2181
2076
2097
2231
2061
2105
2108
2105
2016
2042
2069
2163
2208
2195
1898
1769
1958
2181
1924
2076
2250
2103
1966
1937
1977
2055
1893
2016
2008
1911
1877
2092
2202
2184
2300
2394
2118
2032
1872
1932
2045
2021
1982
2079
2097
2084
1948
2090
2226
2234
1935
1861
1979
2074
1987
1903
2029
2226
1974
2040
2092
2074
2103
1982
1903
1987
1969
2032
1859
2097
2187
1903
1979
2137
2129
2242
2058
2105
2055
1861
1945
2197
2071
1901
1922
2153
2016
1937
2231
2321
2189
2355
2145
1950
1964
1927
1964
2132
2013
2042
1756
1719
1911
1982
2271
2381
2184
2318
2103
1964
1940
1950
2168
2302
2121
2071
2006
2008
1969
2063
2139
2084
1914
1964
1885
1838
1911
1798
1827
2244
2187
2097
2118
2074
1940
1877
2053
2263
2092
2045
1982
2171
2202
1853
2063
2289
1953
1985
1903
1866
1948
2029
2016
1982
2084
2111
1961
2155
2244
2113
1990
2124
2145
2168
2237
2347
2208
1943
1874
2034
1843
1672
1835
2100
1940
1817
2145
2239
2011
2286
2313
2105
2021
1948
2058
2016
1830
2111
2006
1866
2087
2153
2058
2111
2079
2006
1998
2048
2000
2048
2058
2174
2150
2029
2003
1990
2013
2126
2095
2124
2011
1966
2050
2027
2040
2121
2092
2137
2048
2008
1966
2042
2024
1887
1971
2040
1895
1856
1964
2268
2242
2019
2158
2381
2100
1971
2153
2134
2055
2113
1985
2034
1979
1943
2147
2042
1914
2103
2003
1811
1866
2111
1966
1782
2013
2124
2155
2218
2097
2163
2095
2079
2181
2132
2087
2124
2079
1995
1906
1948
1872
1914
2032
2045
2034
2000
2011
2105
2079
2087
2097
2134
2105
2108
2084
1990
1961
1908
1969
2208
2192
2118
2076
2050
2048
2055
2063
2008
1977
2092
2087
2021
1903
1932
2055
2116
2042
1987
2134
2048
1801
2090
2258
2174
2095
1974
1985
2053
2066
2082
1929
1882
1901
1929
1977
2053
2189
2153
1937
1935
2069
2184
2174
2134
2139
2208
2181
2050
2006
2040
1977
1987
1998
2027
1987
1882
1979
2139
2071
2129
2223
2029
1843
2134
2271
1979
1943
2105
2074
2032
2024
2158
2132
1953
1943
2013
1982
1935
1890
2000
2076
2076
2103
2066
2074
2163
2024
2003
2181
2092
2045
2216
2100
1929
1908
2027
2079
2055
2166
2155
2011
1927
1777
1788
1872
1901
2063
2179
2166
2118
1958
2016
2174
2263
2263
2221
2284
2139
1898
2045
2147
2034
1982
2126
2097
1890
1916
1950
1893
1882
1853
2076
2297
2210
1958
1927
1969
1796
1882
2113
2195
2255
1990
1969
2234
2150
2024
2076
2158
2097
1966
2053
2116
2155
2139
2100
2126
2137
2097
1979
1953
1916
1754
1995
2271
2095
2006
2181
2100
1961
2037
1948
1859
1853
1712
2082
2402
2213
2171
2090
1998
1966
1966
2132
2000
1958
2071
1969
1929
1966
2129
2250
2118
2063
1958
1908
1919
1866
2145
2297
2145
2160
2032
2050
2197
2069
1777
1714
2006
1990
1982
2302
2263
2100
1929
1943
2168
2097
2108
2163
2032
2045
2124
2118
1977
1961
2013
2019
2229
2226
2024
1945
1990
2118
2076
2097
2200
2013
1662
1628
1748
1685
1730
2092
2305
2307
2357
2247
2045
1964
2234
2452
2202
2074
2053
1990
1953
1908
2069
2048
1895
2003
1961
1880
1998
2029
1982
2069
2181
2058
1780
1840
2163
2244
2181
2124
2105
2100
2071
2071
2239
2171
1969
2027
1914
1943
2121
2066
2050
2053
2055
1924
1806
1950
1979
1977
2055
2021
2076
2142
2268
2302
2153
2139
2066
2008
2092
2003
2111
2126
1985
2074
2134
2037
1977
1992
1845
1769
1961
1864
1919
2000
1853
2029
2200
2218
2226
2247
2431
2336
2208
2150
2103
2113
1961
1950
2053
1903
1859
1793
1838
2029
1998
1877
1859
1893
2113
2255
2124
2097
2258
2092
2045
2160
2019
1945
1924
1866
1935
1966
2155
2118
2082
2218
2223
2307
2234
1990
2008
1953
1958
1982
2061
2126
2024
1903
1748
1704
2048
2166
2061
2061
2079
2092
2158
2142
2216
2192
2008
1974
2095
2095
2158
2069
1895
2040
2181
2237
2147
1861
1948
1937
1874
1901
1901
1995
1937
1974
2281
2229
2273
2378
2132
2048
2097
1969
1906
1906
2021
1945
1801
1796
1932
2034
2116
2279
2334
2216
2160
2113
2100
1924
1956
2121
2063
1948
1945
2082
2027
1845
2084
1990
2011
2247
2100
2158
2100
1722
1861
2003
2113
2100
1966
2069
2092
1995
2137
2218
2147
2084
2237
2200
2092
2008
1901
1929
2103
2124
2066
1935
1822
1788
1901
1908
1982
2163
2202
2260
2216
1937
2063
2095
2074
2100
2087
2176
1911
1607
2045
2202
2037
2050
2221
2205
2000
1953
2048
2145
2302
2208
2160
2079
1995
1956
2066
2048
1919
1838
1814
1861
2037
2097
2250
2142
2048
2066
1977
2071
2097
1895
2069
2034
2058
2137
2034
2105
2103
1932
1998
2021
2205
2095
2016
2113
1979
1943
2139
2168
2066
1887
2019
2069
1953
1764
2027
2289
2092
2097
2218
2048
2071
1937
2063
2179
1985
1845
1830
1767
1895
2087
2103
1853
2069
2250
2092
2126
2252
2200
2318
2202
2090
2040
2024
1945
1898
1893
2087
2132
1958
1880
2082
2097
2066
1992
2171
2147
1961
1950
1943
1964
2231
2181
2103
1990
1964
1911
1845
1940
2158
2134
2092
2082
2218
2142
2155
2187
2029
1872
1895
1927
1985
1782
2055
2315
2126
2034
2084
2095
2113
1908
2058
2118
2061
1882
1882
2132
2302
2271
2124
1927
1985
1843
1914
2029
2021
1966
2011
2000
2053
2158
2271
2145
2082
2050
2132
2066
1969
2008
2116
2021
2116
2124
1992
1890
2063
2029
2024
2145
2124
1911
1966
2003
2244
2103
1908
2053
1985
1835
2087
2113
2137
2024
2016
2084
2192
2100
2013
2069
2111
1964
1898
1848
1940
1819
1964
2208
2315
2139
2013
2126
2255
2116
2118
1961
1992
2037
2084
2208
2097
1840
1861
1832
2097
2197
2218
2082
1943
1964
2079
2158
2244
1992
1953
1964
1916
1814
1943
2024
2132
2037
2105
2163
2071
2058
2195
2021
2116
2055
1853
1979
2171
2087
2179
2124
2210
2168
2011
1995
2174
2087
1956
1953
2132
1966
1866
1929
1977
1817
1869
1906
1958
2008
2192
2147
2229
2242
2092
1977
2108
2111
2137
2050
1979
1874
1964
1985
2205
2163
2040
2126
2100
1958
2234
2053
1845
1890
1945
1877
1995
2008
2084
2095
2160
2134
2163
2021
2042
2129
2024
1895
2124
2050
1916
1814
2024
2121
2092
2134
2402
2273
2037
2079
2158
1929
2124
2071
2000
2032
1953
2032
2029
1733
1866
1985
2210
2048
2016
2258
2069
1748
1901
1985
2294
2415
2223
2076
2187
1911
1830
2092
2326
2192
2040
1835
1940
1882
1866
2000
2223
2116
1827
1866
2171
1929
1937
2171
2355
2132
1964
2105
2147
1893
1906
2029
2216
1908
1924
2024
1827
1937
2263
2210
2279
2218
2279
2179
2000
1914
2019
1964
2032
2090
2124
1977
1874
1806
1998
2076
2208
2095
2029
2040
1987
1832
2006
2021
2006
1958
2129
2213
2171
2100
2019
1811
1995
1956
2108
2160
2069
2071
2013
1874
1979
2090
2221
2160
2226
2095
2027
1971
2153
2218
2137
2045
2042
1903
1885
1885
2084
1956
1809
1874
2045
2171
2260
2037
2197
2179
2008
2019
2040
2037
2121
1874
2016
2192
2184
1992
2092
2103
2032
2166
2208
2011
2037
1819
1872
1977
2097
2108
2016
2053
2168
1948
2000
2121
2226
2074
1982
2013
2003
1796
1932
2008
1992
1979
1987
1848
2024
2155
2258
2195
2058
2013
2121
1927
2037
2134
2061
2074
2097
1961
2040
2050
2132
2034
2063
2168
2258
2071
2066
2153
2100
1869
1901
1935
2118
2132
2063
2019
2100
2000
2076
2176
2150
2066
2084
1754
1722
1908
2137
2176
2021
2003
2260
2055
1898
1990
2218
2053
1672
1651
2124
2300
2202
2040
2223
2105
1929
1916
2042
2142
2174
2011
2108
2176
2179
1982
2116
2200
2013
1877
2037
2095
2100
1979
2042
2040
2100
2116
2342
2271
1945
1767
1940
2003
2027
1995
1961
1751
1922
2084
2090
2250
2310
1974
2100
2145
2045
1890
1969
2100
2037
1814
1924
1961
1882
1738
2029
2197
2189
2181
2223
1974
1901
2027
2192
2179
2307
2155
2045
1990
1953
2027
2100
1906
2016
2076
2126
2071
1977
1785
1859
1964
2079
2197
2344
2074
1901
1943
2100
2155
2134
1974
2055
2011
2021
1927
1919
2016
2061
1990
2315
2410
2097
1785
1887
1906
2084
2084
2176
2271
2150
2095
2221
2021
1940
1940
2258
2242
2076
1927
1706
1790
2084
1995
2239
2213
2042
1998
2037
2108
2166
2011
2019
2045
2195
2061
2011
1937
1916
2053
2000
1830
2092
2105
2116
2129
2223
2155
2058
1992
2048
2019
2084
2066
2087
1961
2019
1961
1985
2006
2045
1958
1956
2006
2024
1995
2181
2079
2040
1937
2048
2302
2218
2066
2265
2003
1845
1851
1966
2050
2037
1908
2011
2000
1922
2016
2302
2108
2074
2076
2074
2055
2074
2087
1964
1680
1964
2137
2205
2132
2197
2281
1940
1793
2260
2221
2095
1935
2166
2205
1927
1932
2027
1914
2053
1985
2066
1971
1929
1971
2105
2071
1974
2013
2105
2048
2181
2074
2171
2013
1916
2200
2436
2216
1919
1890
2066
1848
1990
2006
1950
1937
1861
2000
2132
1990
2234
2129
2189
2268
2040
1932
2061
2079
2147
1929
1922
1958
1992
1877
1992
2019
1835
1840
2184
2202
2258
2124
2090
2142
2297
2239
2244
2171
1990
1793
1887
1796
1916
1974
2016
2084
2063
2008
2066
1901
2071
2097
2079
2024
2008
2069
2158
2058
2129
2087
2163
2087
2058
1995
2029
2076
2111
1987
2034
1985
2079
2116
2273
2218
2034
1853
1895
1956
2074
2048
2045
1974
2118
2032
2042
2000
1851
1866
2092
2184
2223
1827
1927
2108
2013
2045
2153
2095
2019
1880
2134
2137
2053
1882
2003
2071
2132
2339
2418
2184
2113
2074
2037
1798
2008
2053
1914
1919
1866
1754
2029
2061
2176
2189
2147
2153
2142
1919
1966
2118
2168
1985
2200
2223
2058
1924
1864
1893
2100
2006
2029
1924
1969
2053
2100
2071
2218
2079
1935
2008
2071
2024
2084
1803
1977
2192
2357
2402
2105
1916
2097
1982
2008
1977
2121
2082
1893
1911
2139
2074
1814
1691
2097
2113
2058
2013
2029
2034
2021
1977
2221
2276
2197
2027
2145
2147
2058
1982
2113
2181
2021
1856
2053
1924
2006
1990
2063
2147
1924
1843
2048
1956
2050
2066
2255
2205
2037
2037
2097
2176
2355
2058
2029
2092
1843
1614
1911
2050
2055
2013
2124
2166
2084
1874
2105
2040
1956
2103
2176
2142
2097
2037
2197
1953
1987
2061
2132
2055
1924
1974
2032
2024
2250
1982
2082
2218
2021
1995
2124
2037
2011
1893
2027
2103
2118
2053
2055
1798
1851
1948
1809
1835
2145
2048
2063
2016
2205
2205
1982
2118
2202
2079
2221
2019
2242
2147
1964
2150
2053
2016
2216
2019
2124
2145
2082
1782
1796
2069
1956
1798
2142
2174
2076
1969
2176
2192
2134
2079
2111
2171
2142
2008
2037
1890
1922
1914
2050
2003
2024
2187
2037
1901
2006
1843
2042
2013
2045
2195
2137
2126
1979
1756
2069
1958
1948
2126
2163
2061
2045
2011
2116
2061
2100
2192
2213
1992
2016
1935
1964
2042
2058
2118
2116
1869
1964
1961
2087
2074
1977
2019
2066
1992
2061
2189
2525
2263
1992
1964
1982
1840
1874
2234
2428
1987
1803
1835
1922
1924
2174
2202
1969
1958
2092
2003
2187
2092
2095
2160
2034
1971
2084
1903
1908
1953
2006
2027
2247
2239
1998
2034
2242
2027
1901
1819
2082
2027
1859
2155
2250
2019
2090
2040
2076
2055
1971
1953
2076
1935
2027
2216
2210
2087
2037
2037
2111
2029
2126
2050
2034
2003
1969
2100
2126
1940
2050
1929
1856
1890
2032
2071
1901
1953
2331
2179
2053
2166
2202
2048
2074
2139
2129
2029
1992
1974
2163
2037
2011
1992
1861
1895
2006
2066
2095
1932
1969
2050
2310
2244
2139
2184
1982
1895
2121
2034
2037
2011
1932
1940
2082
2166
2166
1945
1987
2090
1966
1893
2084
2066
2000
1908
2021
2239
2145
2006
2315
2279
2097
1943
1901
2055
2116
2034
2061
2069
2132
1901
1882
2050
2111
2087
1995
1966
2103
2084
2069
1885
1948
2000
1835
1874
2108
2097
2079
2024
2118
2208
2244
2231
2158
1940
1935
2016
2053
2016
2108
2016
1827
1835
2111
2181
2103
2132
2155
1964
1977
2082
2187
2197
2244
2213
2048
1853
1819
1840
1911
2069
2150
1922
2032
2121
2134
2255
2242
2284
2171
1893
2055
2071
1872
1746
1903
1992
1830
1958
2142
1979
2105
2142
2092
2082
2013
1992
1992
2053
2213
2113
2063
2155
2087
1927
2163
2244
2145
2055
1948
2003
1969
1775
2058
2229
2013
1911
2000
2024
1937
1948
2124
2105
2237
2174
1843
1969
2168
1927
1927
2126
2061
1725
1733
2108
2276
2145
2276
2349
2076
1932
2069
2158
2197
2079
2024
2021
1864
1806
2058
2137
2074
2095
2076
1914
2071
2179
2040
2160
2208
2076
2174
2187
2171
2090
2129
2155
1932
2003
2179
1958
1887
1780
1709
1751
1659
1822
2163
2145
2095
2076
2108
2216
2286
2307
2255
2053
1940
1874
1759
1961
2113
2050
2184
2090
2158
2218
1964
2029
2121
2079
2195
2155
2142
1982
1943
2166
2105
2108
2166
1916
1772
1817
2087
2139
2053
2108
2092
2087
2092
2050
2084
1922
1748
1872
2124
2202
2145
2037
1966
2058
2134
2090
2129
2137
2153
2100
2105
2195
2040
1916
1890
1845
1985
1924
1819
1764
1843
2147
2118
2158
2457
2305
2126
2021
1856
1880
1992
2021
2082
2108
1961
1908
1971
1908
2084
2118
1982
2118
2137
2147
2292
2205
2155
2202
2160
2063
1982
1895
1969
2103
1848
1809
2229
2166
2034
2095
1992
1990
1974
1911
2055
2074
1995
2121
2176
2013
2034
2003
1880
2003
2147
2244
2250
2042
1961
1977
2003
2066
2029
1903
1869
1922
1937
1832
2066
2237
2032
2105
2210
2142
2124
2034
2058
2019
2040
2187
2147
2087
2074
2071
2134
2108
2061
1945
2063
2108
2008
2176
2129
1956
1901
1772
1950
2200
2087
1948
2181
2132
1895
1992
2013
2069
2011
1851
2134
2187
1895
1872
1940
1903
1911
1935
2137
2302
2082
1935
2084
2108
2021
2092
2223
2239
2100
2000
2097
2092
2040
1992
2050
2244
2076
2027
2171
2027
2016
2011
2029
2042
1911
2050
2032
1874
1877
1767
1856
2092
2090
2063
2216
2176
1866
1987
2328
2415
2255
1966
2084
2318
2092
2027
2210
2168
1977
1772
1806
1990
2000
1979
1998
2061
2121
2108
2003
2158
2313
2042
2029
2092
1880
1966
2066
1958
1911
1924
2034
2029
1961
2019
2139
2179
2032
2116
2195
2019
1990
2126
2216
2053
1932
2016
1793
1832
2050
2050
2142
2153
2155
2174
2069
2050
2016
2158
2221
2027
2024
2006
1990
2134
1906
1845
2179
2150
1940
2100
2205
1982
1819
1890
2205
2378
2142
2087
2055
1956
1911
1914
2055
1979
2013
2197
1919
1969
1995
1845
2092
2108
2016
2090
1995
1971
1998
2076
2197
2166
2079
2087
2118
2218
2160
1950
1961
2139
1974
1911
2069
2055
2103
1922
1785
2126
1982
1798
2111
2349
2050
1748
1914
1945
1971
2202
2229
2339
2100
1948
2158
1950
1906
2200
2100
2074
2168
2237
2066
2013
2200
2263
2210
2042
1935
1935
1856
1950
1840
1801
2029
2189
2218
2103
2032
1961
1801
2037
2153
2226
2174
1914
2003
1956
1995
2297
1945
1864
2090
2048
2061
2129
2063
2132
2216
2139
2074
2189
2231
2218
1982
1853
1937
1992
1859
1751
2008
2260
1898
1848
2013
2037
2132
2124
2273
2363
2027
1932
1861
1906
2076
2113
2111
2063
2063
2197
2069
1998
1901
1940
2037
2034
2197
2124
1885
1966
1935
1974
2103
2168
2048
1992
2045
2045
1945
1869
1987
2252
2158
2124
2058
1895
1880
1901
2021
2176
2100
2247
2231
2208
2160
2034
2150
2150
1977
2016
1992
1838
1641
2069
2315
2118
2003
1924
2042
2121
1964
2137
2079
1977
2003
2016
1982
1964
2076
2221
2121
2108
2003
1887
1840
2003
2263
2250
2048
2069
2032
1971
1990
2166
2074
2055
2145
2134
2063
1882
1801
2153
2155
2097
2074
1935
1945
1982
1885
2069
2166
2084
1985
2105
2071
2100
2142
2079
2066
1971
1785
1998
2027
1927
1979
2111
2087
2008
2053
2441
2397
2132
2048
2129
2092
1806
1557
1974
2153
1887
1940
2336
2155
1872
2037
2250
2003
1943
2079
2124
2058
2124
2037
1950
1845
2095
2328
2231
2063
2011
1782
1809
2016
2276
2095
2016
2155
2092
1903
2037
2053
1953
1961
2195
2189
2129
2071
2055
1966
1979
1995
2174
2160
2074
2024
2087
1908
1827
1935
2076
2048
2029
2090
2328
2147
1998
1971
2100
2139
2121
2286
2328
1764
1643
1827
2034
2084
1990
1992
2105
1961
2045
2113
2174
2048
1948
2006
2218
2142
2008
2061
2074
1929
2100
2092
2179
2181
2034
1906
1869
1835
1819
1814
2195
2137
2055
2048
2058
2226
2132
1964
2242
2195
2121
1948
2113
2260
2092
2084
2168
1982
1998
1958
1953
1935
2024
1861
1953
1985
1877
1995
1977
1927
2234
2058
2163
2142
1914
1893
1995
2129
2208
2029
2069
1966
2016
2000
2158
2318
2208
2092
2171
1974
1969
1956
1966
1958
2053
1950
1985
1979
2037
2160
2132
1956
2168
2097
2095
2176
2226
2200
2118
2032
1985
1822
2045
1956
1898
1977
2037
2147
2139
1990
2160
2040
2013
1859
2013
2218
1932
1874
2045
1814
2195
2384
2134
2171
2258
1835
1866
1948
1956
2108
2192
2037
2095
1927
1927
2037
2202
2210
2074
2095
2129
1735
1924
2145
2168
2113
2008
1914
2103
1977
1927
2013
2105
2008
1940
1998
2307
2168
2074
2082
2050
2082
2200
2108
2087
1832
1885
1903
1824
1908
2103
2071
2142
2006
2011
1958
1982
2134
2265
2231
2231
1911
1885
1859
1998
2139
2103
2061
2145
2074
2061
2032
2218
2095
2160
2139
1890
1822
2008
2069
2181
1992
1895
1964
2126
1958
2084
2271
2137
1869
1979
2210
2323
2019
1979
1969
2121
2061
1722
1735
1929
1919
2111
2076
2260
2247
2087
2008
2223
2297
1969
1864
2200
2090
2034
1937
1950
1885
1890
2050
2121
1893
1872
1966
2139
2092
2195
2184
2111
2016
2050
2097
2158
2006
2061
2034
2071
2003
2000
2153
2247
2069
2142
2048
2100
2063
2008
2061
2037
1859
1964
2024
2050
1861
1914
1987
2061
1977
2097
2200
2137
2066
2271
2100
1982
1856
1788
1995
2197
1961
2092
2184
2066
1945
2058
2166
2250
2118
1998
2000
2100
1809
1822
2087
2265
2055
2040
2105
2034
1945
2032
1940
2006
1979
2027
2045
2121
2050
2118
2202
2229
2155
2153
1985
1961
1738
1919
2242
2200
2058
1961
1887
2097
1977
2011
2087
2118
2003
1964
2040
2210
2084
2082
2171
2218
2040
2113
2011
1877
1924
1937
1964
2195
2071
2074
2045
2042
2058
2176
2103
1977
1882
1838
1677
2053
2321
2200
1990
2082
2079
2087
2139
2063
1953
2095
1929
2021
2097
2132
2153
2158
2134
2205
2208
2234
1906
1880
2000
1943
1683
1782
2121
2229
2019
2032
1985
2016
1861
2090
2239
2076
2032
2097
1922
1924
2008
2132
1932
2082
2247
2171
2116
2137
2168
2239
2076
2205
1927
1633
1680
1927
2037
2021
2037
2126
1964
2192
2229
2179
2192
2195
1958
1919
2129
2063
1714
1953
2013
2019
2029
2032
2050
2113
2113
2129
1982
2061
1971
2202
2334
2118
2027
1990
1887
2171
2160
2116
1982
2027
1945
1893
2103
2118
1848
1903
1893
2111
2171
2226
2079
1901
2042
2187
1953
2092
2231
2163
1882
1937
2024
2050
2066
2171
2166
2100
1922
2176
2197
2166
2100
2006
1764
1649
1890
2105
1851
2084
2155
2063
2163
2363
2223
1937
1861
2158
2103
2034
1885
1943
1903
1788
2034
2297
2171
2134
1961
2142
2166
2168
2200
2019
1882
1998
1932
2045
2013
2040
1851
1817
1974
2105
2147
2271
2097
1861
1848
2221
2082
2029
2147
2189
2163
2053
2008
2276
2147
1935
1890
2221
2137
1922
1940
1882
1793
2003
1922
1987
2095
2145
1932
2071
2223
2147
2189
2242
2090
2139
1922
1890
1887
1998
2097
2142
1964
1869
1929
2105
2108
2239
1974
1869
1977
1964
1985
2108
2013
2024
1943
2255
2418
2336
2171
2066
2013
1998
1898
2000
1840
1859
1856
1908
2003
2074
2189
2302
2179
2192
2076
2042
1914
1922
1943
2076
2195
2074
1880
2145
2071
2090
2181
2184
2053
1945
1827
1885
1971
2145
2058
2103
2076
2103
2013
1979
2129
2273
2147
2160
1948
1937
1971
2058
2032
1945
1911
2011
1877
2003
2187
2289
2066
2013
2097
2239
2032
1848
2000
2158
1956
2045
1964
1940
1998
2055
2069
2181
2171
2058
1914
2145
2045
2040
2097
2095
2121
2181
2105
2058
1864
1906
2000
2124
1974
2087
2184
2048
2003
2179
2150
2069
1769
1872
1929
1851
1908
2021
2037
2176
2139
2210
2076
2118
2079
2034
2055
2013
1914
1914
1809
2163
2244
2221
2100
1898
2021
2137
1958
2090
1940
1932
1937
2071
2250
2336
2137
1943
2011
2218
2079
2200
2129
2103
2113
2048
1866
1969
2011
1895
1793
1971
1945
2095
1985
1901
2076
2181
2019
2076
2166
2168
1856
1950
2019
2063
2113
1995
1908
2187
2168
2216
2150
2105
1977
1906
1919
1948
1937
2103
1998
2076
2205
2242
2076
2163
2160
2192
2189
1979
1874
2003
1735
1853
1987
2055
2061
1958
1998
2118
1995
2092
2021
2045
2032
2150
2113
2045
2147
2113
1906
2142
2163
2100
2027
1992
1932
2090
2116
2061
2021
1987
1853
2048
1971
2111
2263
2113
2050
2016
2000
2108
1992
2334
2218
1914
1953
2027
1943
1964
1992
2121
1950
1998
2055
2100
1969
1945
2032
2116
2090
2111
2003
2084
1935
1964
1982
1961
2016
2218
2297
2342
2111
1979
1874
2045
2100
2090
2105
1987
1845
2032
1964
1985
2011
2166
2082
2066
2226
2129
1924
2066
1956
2055
2027
2013
2082
2066
1927
2003
2024
1929
1801
2160
2153
2003
2063
2071
2019
2105
1969
2118
2318
2307
2013
1969
1956
1956
1916
2006
2105
2134
1953
2045
2139
2137
1940
2027
2021
1806
1893
2174
2037
2008
1940
2118
2160
2058
2171
2300
2195
2137
1979
1969
1914
2116
2142
2084
2076
1919
1754
1937
2003
2134
2158
2234
2045
1796
1874
2090
2103
2137
2019
2187
2079
1864
1838
1979
2142
2247
2192
2108
1935
1903
1696
1764
2129
2483
2268
1995
2147
2116
1887
2205
2258
2184
2097
2040
2061
1998
1861
2040
2027
1956
1948
2069
2011
1919
1885
2079
2147
2063
2008
2092
2042
2137
2045
1935
1932
2034
1990
2069
2318
2229
1911
2074
2150
2150
2029
1995
2061
1995
1932
2113
1971
1827
1754
1969
2255
2252
2027
2016
2042
2021
2003
2237
2252
2095
1859
1893
2074
2124
1995
2048
2179
2205
1919
1937
2100
2055
2069
2139
1985
2029
2048
2050
2029
2163
2097
1885
1943
2037
1977
2053
2013
1953
1835
2029
2181
2192
2155
2103
2013
1950
1869
2037
2189
2084
1937
2076
2092
2139
2279
2289
2160
2145
1977
1943
1956
1853
1882
1895
1866
2040
2079
2079
2003
2082
2147
2129
2103
1995
1950
2195
2153
1971
2024
2171
2218
2145
1885
1932
2063
1872
1738
2265
2460
2150
1982
1898
1880
1948
1985
2032
2000
2284
2355
2181
2108
2268
2381
2202
1979
1683
1643
1898
1607
1748
2097
2011
2216
2347
2242
2541
2376
1785
1628
1898
2021
1898
2000
1966
1733
1966
2013
1898
2037
2210
2268
2470
2405
2045
1893
1964
2045
1964
1659
1775
1743
1667
1853
2166
2628
2588
2370
2536
2423
2163
1691
1433
1775
2071
2181
2213
1974
2208
2447
2032
1840
2042
1617
1016
1601
2628
2633
2370
2252
2092
2095
2507
2565
2195
1851
1307
1189
1599
1958
2452
2139
1908
2541
2218
1467
1685
1979
2113
2489
2701
2210
1551
1276
1916
3405
3021
858
669
1845
2436
2783
2972
2318
1108
717
1832
3573
3489
488
0
1937
2843
2864
4085
2580
759
1494
1974
2063
2496
1638
893
2447
3329
2714
2691
2108
1465
2139
2867
2531
2255
1578
310
992
1940
1244
2000
3229
2342
1268
2302
3405
2575
2223
3053
1764
365
1785
2733
2137
1722
1310
2415
2649
0
620
3523
2924
3045
2796
1622
1089
318
832
3355
4095
4095
0
0
3969
2869
0
2027
3646
1725
654
2040
3625
2055
0
641
3260
3384
2630
2344
1596
1029
1743
2368
2244
2402
2181
1848
1906
2911
3050
0
0
3171
3730
1769
1536
1945
2748
2567
1229
2725
3833
746
604
4095
4095
1005
580
801
814
3008
3982
2174
1701
1076
165
1803
1612
1549
3386
2914
3329
2924
0
79
2612
1192
1914
4095
3728
1922
1478
1796
3082
3266
1536
2286
2659
310
1323
1187
42
3087
1725
0
4095
4095
3436
255
312
365
0
1769
4095
3557
785
507
1785
2888
2932
2006
2654
2935
2538
4095
2995
0
18
1782
858
4095
4095
2147
1709
1404
2090
1785
2058
3276
2029
1943
2743
730
735
1769
643
1924
2242
848
3722
4095
1932
3951
3964
0
0
3801
4095
2853
2145
24
0
1016
0
4095
4095
0
0
3271
3636
2937
1315
879
3171
3066
2024
2239
1242
1423
1625
1068
3888
4095
0
0
3439
4095
4095
1866
0
921
305
399
4095
3783
1061
2176
344
803
2945
2179
2523
2510
2124
3294
1730
0
2701
3670
1971
2328
1061
1040
3305
1504
564
2764
625
0
3659
4095
4095
4095
1882
2512
3528
0
0
3347
4095
1496
194
1467
2399
1869
1428
3116
4095
2315
572
1391
2678
2615
1751
1712
2712
2580
1958
1977
1659
1488
1761
1549
2053
2591
1911
2082
2822
2486
1696
1570
1953
1507
1575
2192
2003
2541
2932
1685
1502
2184
1940
2777
3691
1378
402
2181
1538
1218
3638
3090
1950
1937
725
2706
3221
0
1609
3011
1334
2223
3344
2916
2415
1268
1302
2961
2835
1937
2053
1583
1454
1617
1026
1452
2444
2439
2284
1714
1176
1565
2901
1544
0
3591
4095
3197
1339
1407
2447
1336
357
2733
3817
1859
1252
2069
2006
1964
2486
1769
389
1131
3247
2877
0
525
3365
3491
2885
2515
2693
2155
1425
1982
1656
1423
1436
908
494
1118
4095
4095
1575
2208
1950
1515
3174
2958
2048
3231
2746
0
0
1840
2853
2693
2638
2457
1730
1410
1961
2439
2911
1859
1499
1987
263
890
3667
2974
1864
2549
2738
1496
1365
2447
1058
446
2909
3313
2284
2321
2328
1714
1775
2709
3019
2701
1987
0
0
2336
2762
2772
3242
2525
2832
2622
1412
1381
1901
1565
1189
1898
2609
1465
998
2063
2578
3003
2964
2449
2630
2250
1410
1517
2155
1782
1473
1956
2071
1966
2006
1698
2016
2195
1730
1444
1814
2588
2769
2370
2544
2168
1659
1767
2019
2126
2252
2441
2192
1449
1751
2055
1838
1956
2512
2906
1294
344
1887
1998
2124
2932
2769
2460
2210
2134
2423
2428
2231
2006
1709
990
1286
2423
2310
1675
1746
1995
2226
1428
1717
3276
3145
2305
1864
1651
2468
2389
1000
990
2229
2202
1688
1714
2279
2672
2271
2029
2578
2811
2352
1349
1226
1772
1838
1895
2258
2074
2021
2517
2250
1591
2100
2289
1945
1880
1866
2084
2533
2126
1798
2111
2189
1874
2076
2263
2391
2531
1953
1208
1210
1446
2118
2307
2433
2809
2108
1158
1042
1801
2861
2292
2132
2825
2132
1231
1607
2034
2709
2985
2263
1840
2118
2103
2019
2050
2053
1903
1874
1811
2208
2559
2273
1289
1068
1551
2147
2777
2888
2210
1840
1620
1680
2003
2489
2433
1722
1158
1473
1966
2478
2832
2531
1578
1685
2126
2300
2565
2426
1916
1887
1693
1864
2292
2342
2092
1971
1935
1769
1620
2244
2331
1961
1885
2239
1966
1404
1824
2646
2499
2063
1874
2242
2305
2016
1940
2305
2349
1796
1575
1937
1725
1712
1793
2013
2630
2762
2260
2105
1772
1712
1987
2055
1801
2000
2318
2069
1402
1880
2748
2523
1864
2218
2454
1885
1452
1874
2100
2066
1859
1872
2221
2559
2533
2271
1578
1491
1775
1880
2090
2168
1803
2129
2294
2195
2210
2355
2373
1953
1467
1885
1898
1735
1898
1866
1764
2124
2244
2580
2675
2628
2478
1887
1454
1945
2108
1922
1877
2147
2187
1845
1748
2003
1588
1882
2531
2617
2271
1748
1845
2334
1872
1704
1945
2294
2066
1704
1856
1882
1908
2454
2391
2441
2339
1761
1397
1591
2045
2418
2061
1872
2097
2397
2368
2226
1916
1908
2155
2355
2008
1693
1827
1924
1465
1696
2300
2654
2205
1515
1798
2486
2470
2423
2255
2279
2195
2029
2063
2069
1793
1302
992
1822
2444
2591
2552
2103
1643
1958
2247
2368
2071
1691
1835
2166
2061
2276
2376
2069
1512
1507
2258
2586
2042
2113
2331
2061
1533
1633
2171
2504
2491
2452
2142
1775
832
984
2328
2751
2475
2328
1903
1953
1877
1943
2405
2517
2097
1977
2076
2124
1803
1599
1706
2184
2179
2145
2076
2181
2313
1945
1334
1567
2213
2507
2095
2226
2407
2042
1869
2013
2016
2155
1950
1746
1570
2029
2515
2307
1872
2084
2481
2260
1557
1890
2594
2357
1399
1483
2092
2084
2074
2628
2570
1929
1373
1515
1803
2268
2336
2132
2237
1956
1315
2011
2746
2680
2349
1943
1719
1908
1835
1874
2200
2499
1935
1512
1733
2237
2347
2048
1908
2171
2153
2195
2142
2132
1785
1554
1953
2349
2349
2565
2076
1491
1431
1756
2121
2113
1908
2399
2567
2202
2050
2250
1738
1614
2221
2486
2187
1630
1192
1893
2601
2473
2226
2342
1969
1580
1701
2079
2281
2457
1966
1780
2412
2436
1572
1722
2328
2347
1727
1523
2000
2363
2037
1969
2048
2252
2334
2318
2171
1877
1499
1370
1601
2573
3021
2769
1751
1147
1698
1914
1633
2103
2118
2095
2552
2714
2313
2024
1814
1824
2034
2531
2384
1948
1517
1281
1520
2218
2478
2294
2118
2242
2129
1985
1683
1662
1887
2055
2155
2292
2076
1979
1935
2061
2008
2208
2420
2121
1880
2231
2331
2048
1614
1822
2069
1990
1819
2076
2276
2179
2034
2105
2050
2234
2150
2192
2221
2208
2187
1898
1638
1992
2145
2092
1851
2042
2252
1866
1331
1688
2197
2153
1822
1943
2034
2310
2473
2386
2315
2407
2195
2021
1851
2118
2153
1475
1108
1835
2239
2176
2063
2158
2347
2617
2342
2124
1964
1966
2158
1956
1551
2024
1971
1465
1520
2410
2867
2391
1880
2000
1982
1948
2027
2258
2286
2250
2042
2066
1903
1843
2021
1977
1859
2058
1772
1764
1777
1672
2063
2685
2683
2305
1950
2006
1712
1777
2008
2218
2462
2313
1935
2034
2021
2129
2352
2373
1754
1622
1937
2055
2019
1958
1887
2276
2255
2229
2370
2470
1914
1074
1215
2234
2512
2360
1945
1911
2105
1880
1549
1995
2384
2310
2174
2226
2008
1898
1859
2116
2352
2460
2292
2013
1565
1520
1651
1832
1861
2069
2247
2328
2347
2284
1654
1578
2273
2743
2328
2158
2242
2116
1775
1830
2158
2323
1719
1607
1943
1987
2113
2202
1646
1824
2470
2801
2604
2137
1811
1864
1494
1565
1948
2129
1950
1761
1877
2326
2294
2166
2069
2153
2176
2048
1643
1549
1696
2171
2486
2489
2328
2431
2399
2166
1953
2055
1971
1961
1651
1617
1845
1738
1709
2034
2176
2559
2457
2218
2090
2216
2121
1840
1898
2108
2134
2386
1898
1494
2042
2447
1971
1901
2076
2037
1877
1785
1971
2583
2034
1530
1940
2179
2024
2008
2163
2475
2315
2158
1740
1754
2058
1971
2108
2310
2058
2189
2071
1969
1914
1998
2237
2302
2058
2163
2003
1368
1137
1924
2570
2717
2347
2121
2058
2006
1937
2013
2221
2313
1677
1596
1961
2260
2226
1948
2061
2378
2095
2142
2084
1945
1738
1709
1979
2084
2100
2460
2181
1851
1943
2174
2126
2082
1922
1906
1809
1775
1964
2160
2139
2284
1948
1869
2042
2250
2216
1843
1914
2415
2179
2092
2255
2447
1995
1593
1906
2076
1877
2079
2076
2011
1651
1649
2189
2373
2202
2512
2363
1541
1223
1919
2313
2447
2326
2195
2179
2197
2011
1979
2255
2389
1733
1562
1656
1767
2027
2305
2601
2538
1908
1756
1709
1992
2166
2011
2113
1701
1053
1688
2108
2420
2751
2625
2265
2090
1722
1625
2231
2861
2439
2037
1992
1895
1641
1953
1974
1593
1803
2079
1845
2011
2034
2307
2423
1838
1798
2420
2095
1656
1964
2604
2331
2087
2258
2084
1990
2145
1887
1819
1688
1706
1817
1764
1827
2478
2667
2520
2439
2247
2048
2037
1641
1696
1887
1927
2000
1924
1937
2365
2145
1796
1793
1819
1572
1964
2588
2536
2297
2268
2121
2263
2145
2389
2515
1890
1399
1499
2011
2139
1601
1974
2431
2339
2050
2027
1950
1751
1835
2184
2213
1929
1628
2029
2223
2100
2024
1840
1801
2160
2460
2877
2462
1832
1877
1932
2076
2355
1764
1257
1664
2297
2355
2244
2000
1990
2116
2158
2192
2318
1992
1601
1659
2092
2181
2132
1985
1924
2163
2418
2066
1675
1683
1985
2029
2084
2321
2426
2323
2426
2189
1848
1654
1677
1916
2100
2016
2050
1856
1452
1759
2578
2478
2300
2300
2082
1956
1898
1664
1675
1977
2328
2378
2386
2239
2307
2355
1956
1814
2066
2006
2006
1890
1869
1751
1509
1725
2470
2769
2370
1919
1887
1874
2024
2032
2013
1827
1428
1759
2507
2580
2420
2076
2003
2087
2055
1977
1971
2016
2105
1995
1887
2223
2397
1814
1924
2389
2174
1864
1625
1431
1880
2223
2386
2512
2223
1880
2032
2160
2174
2223
2142
1628
1570
2055
2428
2444
2439
2433
1898
1373
1538
1593
1633
1945
2150
2079
2024
1998
2160
2279
2250
2426
2549
1924
1709
2066
1977
2048
2486
2502
2265
1735
1373
1525
1908
2208
2315
2258
2250
2139
1935
2006
2134
1922
2103
2092
1685
1572
1714
2082
2431
2286
2399
2654
2326
1767
1843
1964
1845
2021
2184
2124
2069
1712
1551
1769
2289
2607
2331
1856
1701
2011
2328
2239
2208
2195
2058
1788
1664
1940
2252
2013
1667
1738
2024
1971
1974
2116
2284
2391
2090
1898
2132
2352
2465
2126
1903
2095
2168
2000
1806
1890
2158
2063
1898
1824
1927
1901
1483
1908
2827
2685
2352
2016
1646
1827
2050
1940
1832
1861
1751
1677
1853
2097
2431
2512
2415
2386
2491
2289
1727
1633
1575
1599
2216
2218
2029
2189
2142
1885
1740
2349
2725
2195
2137
2121
1937
2105
2055
1979
2011
1832
1908
1861
1628
1683
1927
2021
2069
2221
2444
2315
1908
2029
2260
2024
1895
1798
1848
2137
2328
2412
2184
2011
2095
1864
1935
2113
2024
1977
1633
1601
2229
2363
2284
2557
2499
2040
1979
2076
1869
1727
1832
1919
1992
1929
1961
1985
1827
1961
2255
2370
2297
2132
2121
1872
1525
1777
2376
2423
2150
2048
1893
1767
1717
1898
2570
2578
2237
2137
1832
1903
2213
2195
1979
1895
2084
1969
1738
1845
1950
1743
1727
2048
2315
2289
2202
2192
1977
1882
2389
2554
2003
1845
2121
2166
2042
1922
1977
1840
1638
2147
2651
2336
1803
1701
1822
1864
2174
2384
2121
1793
1536
1725
2397
2596
2433
2205
2013
2016
1908
1890
1853
1803
2132
2321
2334
2063
1654
1824
2179
2218
2210
2384
2189
1383
1326
2019
2378
2318
2066
1940
2019
2129
2082
1940
2111
2166
1971
1719
1866
2575
2483
1827
1764
1932
1775
1515
2061
2617
2420
2113
2024
2139
1929
1381
1843
2680
2588
2365
2244
1932
1919
2129
2263
2538
2323
1452
1368
1761
1751
1914
2058
1767
1722
2213
2536
2517
2391
2097
1940
1817
1685
1964
2027
1827
2111
2428
2305
2087
2124
2378
2294
2237
2352
2244
1759
1205
1344
1761
1929
2208
2255
2242
2197
1940
1982
2103
2108
2011
1824
1756
1633
1953
2399
2355
2368
2355
2105
2158
2349
2208
2016
1898
1559
1803
2003
1824
2252
2242
1922
2284
2410
2321
2129
1866
1859
1893
1990
2124
2029
1782
1604
1754
1916
2113
2415
2357
2105
2124
2352
2187
1696
1838
2176
2276
2234
2160
2105
1649
1047
1436
2376
2735
2410
2349
2255
1822
1717
1851
2179
2378
2024
1906
1840
1919
2289
2386
2531
2244
1507
1617
1793
1859
1901
1481
1517
2213
2465
2512
2654
2549
2328
2111
1793
1882
1914
1599
1557
1985
2531
2538
2042
1966
2139
2305
1898
1336
1651
2076
2179
2294
2284
2394
2124
1599
1769
2244
2166
1990
1971
1940
1840
1982
2063
2160
2473
2502
2069
1651
1654
1814
1683
1819
2370
2780
2465
2279
2583
2349
1604
1402
1798
2092
1866
1869
1948
1698
1620
2024
2454
2491
2239
2158
1906
1927
2095
2006
2087
2195
2095
2116
1935
1869
1940
1977
2021
2021
1751
1914
2263
2118
2153
2334
1969
1735
1843
2318
2738
2460
2147
2126
1869
1712
1874
2323
2008
1525
1725
1670
1593
2355
2664
2483
2391
2132
2042
2197
1840
1683
1704
1538
1827
2412
2216
2087
2252
2097
1932
2066
2189
2142
1764
1599
1998
2410
2179
2181
2342
2218
2181
2352
2273
1924
1580
1824
1995
2092
2137
2029
1903
1614
1596
2197
2111
1890
2142
2331
2289
2307
2315
2307
2082
1971
1990
1848
1583
1775
2055
2082
2019
1958
1835
2184
2418
2394
2163
1861
1777
1945
1948
2055
2281
2189
1914
2045
2037
2000
1908
1843
1922
2024
2079
2147
2000
2229
2347
2260
2100
2074
2229
2213
1990
1995
1861
1916
1961
1977
2034
2055
1945
2006
2069
2192
2113
2079
2016
1979
1985
2013
1903
1919
1950
1958
1956
2118
1872
1945
2328
2289
2108
2305
2279
2053
1733
1793
1901
1958
1927
2008
2250
2229
1943
2174
2137
2116
2166
2132
2024
1950
1898
1832
1622
1937
2090
2111
2363
2565
2310
2037
1958
1961
2032
2334
2252
2221
2111
2126
2040
1819
1730
1806
1727
1861
2268
2520
1914
1641
1848
1995
2050
2260
2221
2016
1890
2042
1974
1901
1819
2087
2339
2360
2129
1908
1806
2142
2103
1969
2242
2399
1819
1769
2405
2691
2095
1491
1528
2029
1990
2069
2166
2079
2087
2061
2011
2192
2037
1977
1646
1814
2326
2405
2284
1861
1625
2053
1856
1961
2489
2625
2365
1806
1549
2016
1772
1725
2402
2722
2189
1859
1945
2071
1943
1901
2040
2373
2084
1746
1788
2000
1995
1916
1937
2352
2510
2473
2305
2368
2097
1591
1460
1643
1680
1822
1927
2053
1924
2168
2326
2221
2174
2313
2192
2145
2229
2176
1935
2189
2153
2013
2008
2176
2137
1782
1641
2111
1966
1709
1756
1887
2108
2313
2231
2279
2024
1672
1551
2013
2221
2210
2166
2055
2063
2292
2137
2061
2000
2016
2000
2103
2071
2113
2063
2053
1869
2021
2155
1722
1523
2263
2363
2090
2118
2179
2019
2019
2163
2378
2092
2003
1990
1945
2029
2202
2027
1906
1793
1893
1916
1895
1893
2336
2410
2053
2032
2281
2158
2279
2218
2082
1985
1714
1299
1622
2166
2336
2187
2139
1987
2105
1943
1898
2105
2242
2307
2315
2021
2121
2255
2100
1536
1586
1950
1801
1722
2042
2027
2192
2197
2027
2034
2412
2318
2071
2189
2310
1864
1696
1790
2084
2197
2300
2326
2294
1922
1583
1743
2134
1927
2029
2202
2076
2061
2360
2258
2058
2234
2517
1927
1588
1777
1929
1911
1950
1840
2087
2210
1733
1672
2678
2882
2197
1845
1924
1887
2074
1893
1814
2103
2074
1591
1746
2008
1974
1937
1956
2029
2575
2391
1908
2118
2426
2284
2265
2155
2124
1992
1964
1877
1748
1785
2055
1880
1932
2255
2221
1853
1985
2111
2174
2113
2027
1956
2134
2355
2279
1856
1822
1861
2105
2195
2153
2069
1667
1239
1767
2420
2662
2523
2237
1675
1793
2168
2192
2189
2210
2029
2082
2048
2179
2079
1901
1751
1901
2247
2281
1966
1864
1782
2113
2166
2137
2124
1937
1827
1814
1906
2368
2192
1906
1709
1712
1992
2410
2397
2433
2523
2247
1714
1908
2021
2055
2013
1977
2181
2013
1625
1754
1743
2192
2370
2286
2315
2103
1835
2071
2084
1948
1861
1859
1754
2132
2326
2231
1956
1609
1662
2076
2504
2693
2108
1835
1685
1701
1866
2134
2420
2344
1898
1943
2205
2326
2040
2160
2008
1596
1932
2158
1782
2213
2507
2273
1919
2158
2468
2008
1580
1969
2040
1961
1932
2092
1987
1649
1822
2510
2462
2237
2048
1719
1499
1985
2276
2137
2037
2176
1914
1675
2045
2538
2315
2105
1908
2045
2126
2116
2032
1992
2042
1843
1197
1617
2255
2176
2150
2465
2512
2483
2384
2412
2066
1798
1877
2147
1929
1696
1785
1922
1790
1796
1982
2554
2583
2444
2250
1869
1467
1431
1488
1990
2704
2748
1796
1565
1937
2040
2121
2347
2370
2271
1824
1772
1838
2011
2024
2082
2297
2231
1628
1719
2347
2468
2050
2147
2034
1767
1843
2000
2090
2279
1864
1633
1701
2118
2431
2565
2399
2352
2428
1995
1213
1578
2095
2013
1819
2003
2247
2420
2108
2100
2279
2237
1979
1992
1990
2003
1824
1798
1987
2145
1885
1880
1982
1992
1756
1924
2105
2013
2063
2263
2139
2334
2168
2013
2229
2436
2176
1974
1840
1929
2197
2512
2192
1932
1919
1906
1780
1880
1940
2063
1940
1961
2310
2659
2145
1591
1567
1822
1882
2082
2053
1885
1775
2050
2179
2216
2273
2334
2158
2242
2339
2229
1756
1733
1691
1709
2265
2651
2200
1998
2179
2352
1974
1775
1798
1882
1740
1735
1890
2027
1733
1693
2239
2953
2696
2352
2069
1911
2137
2003
1586
1911
1945
2053
2284
2460
2436
2016
1580
1785
2008
2242
1901
1662
1859
2019
1790
1877
2184
2538
2407
2326
2339
2118
1759
1830
1992
2202
1895
1754
1945
1977
1958
2292
2121
2040
2145
2231
2357
2331
1877
1706
1473
1544
2145
2759
2552
2234
2079
1950
1919
2108
1887
1950
2074
2011
1843
1982
1971
1719
1499
2011
2615
2528
1738
1656
1898
1809
1903
2507
2733
2478
2139
2326
2158
1987
1945
1824
1872
2090
1982
1880
1693
1722
1704
2076
2491
2515
2179
1995
2008
2187
2027
2016
2171
2058
1633
1990
2415
2276
1901
1914
2095
2024
1793
1861
1575
1798
2011
1916
2174
2263
2053
2365
2360
2499
2399
2066
1793
1675
2040
2373
2158
2137
1814
1801
1914
1929
1971
1979
2079
2260
1966
2027
2349
2352
1893
2016
2160
2134
1943
1567
1691
2066
1895
2189
2323
2297
2205
2084
2142
2111
1974
2108
1717
1499
1793
2328
2481
2321
2034
2045
2129
2087
1856
2181
2184
1659
1462
2011
2365
2281
1974
1995
2208
2376
2134
2142
2069
1927
1727
1806
2276
2557
2024
1672
1664
1877
1827
2053
2591
2641
2155
2079
2061
2147
1958
1969
2192
1911
1433
1557
1554
1730
2129
2423
2454
2462
2090
2019
2255
2370
2208
1903
1746
1977
1819
1929
2205
2221
1717
1381
1903
2376
2265
2512
2376
2150
2029
2034
2069
2129
2055
2042
2011
1982
1746
1761
1717
1811
2297
2688
2499
2260
1706
1509
1901
2205
2055
2082
1964
1788
2037
2465
2218
1964
1948
1998
1932
2139
2181
2055
2084
1943
1717
1979
1882
1961
2137
2092
2006
1958
1793
1979
2460
2733
2328
2090
1966
1945
2155
2069
1620
1680
1864
2076
2273
2573
2517
2040
1704
1817
1811
2011
2336
2447
2040
1730
1725
1924
1877
1950
2373
2370
1646
1746
2263
2347
2294
2281
2184
2118
1964
1961
2090
2176
1788
1725
1754
1743
1979
2066
1977
2263
2384
2216
2013
2063
2111
2113
2105
2168
2069
1696
1294
1544
2063
2473
2570
2405
2321
2331
2126
1979
1840
1906
1948
1940
1985
2216
2116
1835
1950
2229
2187
2058
1943
1887
1748
1835
1901
1861
2087
2546
2586
2323
2066
2074
1914
1856
2258
2318
1940
1880
1827
1898
1759
1769
2286
2428
2195
2202
1869
1533
1814
2244
2158
2097
1974
1727
1735
2181
2554
2452
2045
2011
2189
2307
2118
1754
1772
2087
2076
2168
2258
2042
1698
1630
1859
2247
2331
2260
2297
2160
1882
2200
2218
1856
1693
1735
1932
1935
1935
2281
2305
2218
2061
2013
2187
2197
2029
1903
1809
1845
1927
2055
2058
2100
2158
2242
2095
1664
1599
2097
2302
2160
2118
2315
2179
1977
2034
2103
2229
2003
1523
1995
2578
2391
2202
2113
1964
2006
1987
2092
2108
1683
1607
2129
2097
1843
2006
2200
2092
2111
2237
2019
1709
1572
1580
2195
2389
2305
2565
2310
1956
1992
1901
1977
2084
2129
2029
1775
1698
1769
1895
2255
2580
2433
2048
2058
2029
1987
1890
1617
1977
2384
2095
1932
2048
2184
2132
2160
2454
2494
1950
1250
1376
2160
2313
2079
2066
2202
1890
1748
2531
2748
2153
1919
1877
1874
1908
2095
2176
2079
2037
1877
1856
2024
2040
2084
2034
1814
1751
1885
2124
2441
2326
2013
2066
2108
1958
2121
2247
1924
1565
1772
2405
2565
2168
2050
1929
1680
2000
2457
2181
1746
1798
1895
1953
2121
2171
2195
1901
1803
2323
2615
2384
1969
1840
2058
2084
2016
2006
1895
1656
1638
1874
2108
2347
2271
1924
2147
2271
2021
2016
1964
2048
1961
1567
1932
2389
2405
2365
2297
2184
1872
1698
1943
2100
2000
1722
1656
1895
2187
2370
2389
2216
1971
2034
2132
2000
2166
2168
1969
1943
1893
1990
2082
1971
1893
1882
2019
1853
1764
2297
2528
2402
2436
2242
2021
1817
1866
2076
1945
1796
1646
1840
2307
2297
2184
2071
1856
1832
2045
2108
1922
1727
1549
1756
2381
2638
2636
2441
2174
2145
2095
2105
2139
2079
2019
1874
1790
1675
1714
1966
2113
2129
1874
1672
1843
2342
2706
2512
2176
1843
1664
1843
2061
2021
1809
1672
1544
1869
2859
2972
2394
2150
1887
2045
2255
1824
2024
2378
1646
1320
1987
2559
2538
2370
2313
1992
1754
1746
1893
2069
1924
1727
1733
1643
1869
2331
2255
1977
2053
2158
2124
2103
2053
2195
2360
2423
2305
1830
1685
2016
1940
1822
2145
2174
1683
1696
2202
2108
2071
2462
2344
2192
2045
1851
1869
1580
1830
2714
2706
1914
1607
2074
2176
2034
2153
2000
1790
1672
1423
1793
2622
2567
2021
1948
2003
2171
2134
2021
2281
2210
1759
1546
1719
2255
2391
2376
2360
2024
1966
2042
1701
1830
2189
2328
2355
2034
1877
2124
2045
1725
1759
2163
2202
2024
1935
1898
1880
1764
1935
2622
2943
2441
1701
1614
1866
2019
2139
2234
2055
1533
1444
1992
2210
2376
2394
2202
2076
1919
2048
2289
2166
1979
2003
1979
1685
1822
2189
2171
2265
2389
2284
2242
2008
1990
2053
1953
1780
1775
1961
2092
1987
1759
1887
1903
1420
1945
2643
2331
2074
2045
2000
2179
2205
2339
2428
2218
2063
2076
1922
1698
1704
1977
2034
2118
2258
2263
2024
1914
2061
1969
1756
1929
1898
1809
1872
1977
2055
2126
2155
2334
2410
2147
1956
2213
2092
1830
1869
2171
2412
2195
2008
2118
1929
2042
2255
2103
1887
1882
1788
1861
2142
2286
2202
2063
2034
2189
1974
1895
2118
1982
1706
1872
2079
2042
1853
2258
2764
2573
2076
1801
1746
1979
1979
1966
1971
2000
2006
1578
1229
1977
2444
2187
2226
2730
2641
2000
1712
1935
2069
2137
2108
2016
1937
1838
1654
1895
1969
2037
2502
2573
2252
2095
2045
2197
1922
1782
2006
2032
1866
1814
1898
2137
1901
1691
1929
2034
1977
2347
2601
2342
2074
1903
1691
2027
2302
2405
2195
1769
1680
1943
2103
2121
1971
1929
1914
2045
2147
2242
1835
1349
1675
2279
2357
2331
2244
2153
1809
1992
2468
2339
1916
2037
2237
2147
2013
2168
2053
1922
1935
2066
2129
1971
1740
2040
2069
1945
2216
2339
1961
1916
2087
2061
1738
1698
2066
2496
2265
1956
2121
2258
2055
2168
2231
1985
1662
1701
1809
2037
2297
2347
1882
1843
2323
2268
1761
1927
2237
2321
2066
2061
2255
2200
1950
1725
1481
1806
2116
2050
1927
2218
2103
1759
2084
2712
2478
1948
1588
1845
2276
2247
2053
2021
1859
2095
2250
2179
1927
1733
1418
1578
2323
2654
2234
2139
1971
1906
2076
2137
2076
2053
1869
2011
1945
1985
2452
2620
2147
2166
2192
1998
1945
2000
2048
2048
1845
1861
1714
1906
2095
2011
1853
1814
1748
1761
1990
2533
2567
2447
2126
1977
2079
2134
2124
2160
1940
2011
1945
1943
2053
2126
1845
1664
2003
2336
2076
2258
2284
2061
1940
2037
2042
2048
1937
1945
1874
1712
1638
2066
2069
2090
2454
2583
2200
2024
1898
1725
1596
1971
2315
2460
2307
2221
2003
1898
1964
2142
2055
2061
2011
1903
1685
1819
2021
2084
2129
2601
2609
2111
1580
1643
1796
1764
1922
2412
2205
1908
1911
2260
2436
2389
2279
2108
1780
1979
2032
2126
2082
1683
1418
1793
1935
2357
2633
2394
2179
2223
1961
1937
2155
2124
1544
1593
1953
2027
2040
2137
2137
2339
2132
2097
2158
2082
1935
1987
1958
1824
1859
2292
2147
2055
2066
2066
2084
1943
1635
1775
2042
2344
2150
2000
2242
2491
2160
2027
2271
2252
1740
1701
1761
2027
2218
2108
1958
2121
2210
2105
1827
2092
2242
2069
1966
2111
1927
1817
1943
2074
2003
2137
2113
2205
2074
1961
2100
2118
1780
1987
2378
2258
1861
2111
2040
1735
1932
2071
1943
2331
2405
2153
2008
2082
1901
1680
1670
2108
2454
2452
2058
1822
1759
2008
2066
2286
2391
2116
1898
1790
1772
2307
2326
2147
2118
2205
2079
1919
1769
1698
1512
1719
2053
2210
2195
2381
2271
2063
1982
2037
2071
2242
2037
1838
1764
1911
1901
2181
2696
2814
2271
1806
1575
1785
1866
2103
2218
1890
1601
1614
1835
2426
2489
2352
1958
1830
2074
2239
1987
1929
2061
2050
1817
2121
2139
2090
2150
2006
1979
2252
2137
1977
1985
2258
2258
2016
1696
1877
2171
2179
1982
2058
2053
2061
2042
2195
2142
2216
2273
2079
1911
1890
1575
1596
1814
2116
2074
2050
1990
1866
2105
2512
2412
2284
1961
1864
1940
1995
2000
2265
2342
2218
2137
2234
2045
1801
1620
1801
1895
1872
1822
2006
2100
2208
2381
2473
2153
2000
2061
2145
1872
1706
1830
2050
1727
1885
2412
2457
2108
1961
2124
2439
2197
2084
2087
2079
1990
1898
1851
2021
1979
1811
1546
1814
1827
1764
2092
2313
2268
2394
2349
2289
2029
1832
1995
2468
2181
1859
1953
1817
1452
1746
2302
2643
2512
2457
2281
2223
2061
1827
1822
2084
1898
1775
1706
1504
1326
1835
2381
2473
2378
2205
1819
1943
1929
1945
2150
2121
1945
2289
2596
2557
2066
1819
2027
2378
2118
1908
1950
1725
1352
1785
2313
2321
1924
2019
2231
2273
2084
2087
2202
2221
2168
2142
1872
2058
2074
1790
1675
1966
2237
2092
1969
2570
2412
1649
1641
2129
2069
2003
1769
1486
1612
2053
2286
2559
2397
2260
2223
2129
1979
2226
2223
1840
1714
1940
1777
1809
1769
1746
2079
2334
2189
2339
2323
2339
2197
2053
2071
2160
2024
2100
1945
1633
1714
2126
2053
2066
2121
2187
2069
2027
2158
2250
2132
2139
1914
1982
2142
2265
2027
1643
1457
1638
1530
1730
2339
2709
2360
2265
2250
2229
2231
2218
2092
1948
1580
1788
1945
1751
1885
2263
2300
2512
2454
2218
1746
1651
1830
2063
2210
2239
1911
1677
1399
1861
2541
2738
2370
2155
1971
1782
1764
1948
2016
2137
2061
2111
1874
1746
1893
2084
2160
2255
2260
2428
1953
1635
1995
2423
2234
1943
2032
2381
2100
1977
2061
2166
2082
2006
1895
1935
1937
1956
2021
2118
1890
2037
1864
1701
1919
2139
2124
1882
1877
2381
2239
2192
2040
1953
2318
2447
2200
2189
2034
2121
2048
1953
2045
2082
1722
1738
1927
2069
1927
1578
1407
2126
2491
2510
2483
2263
1992
1953
2016
2118
1775
1586
1591
2082
2315
2187
2092
2116
2042
2250
2452
2636
2310
1958
1824
2042
1971
1717
1746
2092
2053
2011
1859
1735
1523
1591
2027
2562
2559
2284
2032
2163
2053
2071
2145
2223
2111
2048
2058
2087
2045
2103
1916
2158
2179
1956
1937
1950
1830
1890
1809
1756
1714
1940
2095
2302
2192
2111
2208
2399
2334
2187
2003
2066
1924
1890
1887
1901
1664
1523
1817
2512
2599
2436
2216
2202
2160
1990
2082
2286
1906
1995
2024
1885
1890
1730
1706
2155
2108
2113
2108
2176
2163
2163
2048
2092
2160
2168
1943
2050
2145
2016
1874
2076
1885
1822
1950
1937
1958
2142
1958
1772
1586
1914
2347
2496
2439
2368
2079
1974
1927
2069
1950
2024
2289
2276
2034
2116
2095
2055
1851
1945
2168
2087
1735
1801
1675
1743
1927
1969
2355
2486
2163
2449
2145
2011
2263
2066
2000
2055
1735
1817
1798
1798
1956
2294
2286
2087
2118
2294
2126
2084
2029
2092
1911
1725
1596
2032
2363
2189
2076
2223
2087
1927
1864
2218
2231
2045
2079
2132
2027
2058
2063
2160
2045
2216
2179
2029
2034
1945
1845
1890
1672
1803
1890
1898
1866
2003
2008
2034
2313
2559
2294
2234
2113
1987
1945
2058
1992
1995
1992
1856
1898
2284
2079
2019
2024
1908
1893
1953
2034
2229
2150
2284
2210
2179
2134
2071
2097
2069
1958
2003
1898
2029
1977
2037
1998
1895
1761
1628
