Truong Nguyen Trung,Hieu,1491,10/15/2019,9:44:13 AM,10/15/2019,10:00:39 AM
2108
2126
2109
2118
2120
2114
2101
2074
2078
2132
2052
1943
1862
1996
2322
2782
3467
4095
4095
4095
3572
1945
1304
1261
1230
1500
1547
1517
1638
1953
2035
1982
1970
2013
2009
2002
1995
1988
1983
2019
2038
2055
2077
2090
2109
2133
2168
2201
2232
2256
2286
2330
2365
2403
2426
2445
2465
2467
2468
2462
2439
2430
2409
2385
2359
2300
2226
2139
2048
1973
1899
1850
1790
1741
1717
1678
1663
1652
1638
1639
1626
1621
1597
1598
1583
1564
1553
1547
1538
1531
1532
1516
1515
1505
1496
1478
1481
1471
1452
1443
1418
1405
1394
1403
1374
1375
1367
1346
1339
1345
1337
1338
1352
1347
1355
1366
1376
1396
1408
1432
1445
1461
1485
1500
1514
1547
1556
1564
1593
1596
1615
1616
1627
1637
1645
1658
1663
1689
1707
1705
1709
1715
1721
1774
1782
1793
1793
1782
1773
1756
1744
1736
1736
1742
1753
1749
1758
1772
1766
1774
1791
1808
1821
1828
1831
1853
1839
1822
1816
1864
1795
1658
1553
1662
1997
2459
3110
3913
4095
3955
3316
1660
913
926
928
1262
1377
1385
1563
1908
1994
1977
1972
2036
2085
2089
2084
2085
2112
2136
2147
2162
2186
2198
2213
2239
2251
2279
2309
2334
2367
2396
2434
2459
2498
2530
2561
2578
2602
2626
2636
2646
2641
2618
2598
2564
2497
2426
2341
2261
2176
2119
2051
1997
1967
1927
1907
1885
1876
1861
1856
1851
1837
1836
1833
1835
1837
1832
1844
1830
1843
1844
1834
1843
1850
1852
1858
1866
1855
1851
1867
1861
1857
1867
1861
1858
1857
1860
1840
1845
1842
1836
1835
1830
1825
1815
1827
1823
1821
1819
1821
1809
1814
1814
1812
1810
1822
1813
1806
1809
1806
1816
1821
1816
1808
1816
1837
1850
1841
1847
1844
1859
1904
1900
1902
1901
1875
1859
1844
1820
1821
1820
1836
1830
1835
1840
1831
1845
1836
1854
1874
1874
1879
1886
1895
1882
1846
1865
1906
1780
1655
1580
1783
2156
2660
3381
4095
4095
4009
3031
1346
959
942
1055
1419
1466
1502
1762
2029
2041
2014
2024
2106
2137
2126
2113
2134
2155
2180
2198
2224
2245
2265
2278
2297
2320
2341
2366
2395
2435
2461
2482
2518
2540
2587
2610
2628
2643
2667
2687
2703
2696
2676
2656
2588
2520
2438
2332
2263
2183
2102
2051
2003
1965
1939
1910
1887
1879
1876
1870
1873
1854
1864
1857
1855
1869
1859
1874
1881
1880
1892
1898
1907
1913
1919
1915
1920
1934
1939
1938
1946
1949
1948
1956
1964
1957
1970
1971
1977
1967
1971
1966
1967
1961
1961
1963
1968
1970
1970
1972
1970
1976
1979
1976
1974
1974
1976
1983
1988
1995
2010
2013
2014
2017
2012
2036
2060
2061
2066
2041
2014
1993
1973
1969
1972
1972
1979
1986
1979
1985
1979
1973
1989
2007
2012
2018
2026
2036
2014
1992
1985
2029
1963
1835
1746
1832
2135
2538
3189
3992
4095
4095
3548
1946
1158
1119
1090
1380
1465
1465
1581
1939
2108
2107
2126
2180
2206
2215
2228
2233
2243
2268
2287
2309
2330
2347
2377
2395
2425
2452
2475
2507
2529
2569
2596
2622
2654
2679
2710
2733
2755
2760
2772
2776
2767
2759
2726
2672
2594
2508
2416
2322
2241
2169
2097
2048
2011
1981
1954
1937
1924
1915
1911
1909
1894
1892
1897
1889
1888
1886
1886
1884
1890
1892
1889
1900
1903
1903
1912
1918
1924
1933
1935
1933
1931
1942
1939
1940
1944
1937
1946
1940
1939
1934
1926
1932
1923
1925
1922
1919
1910
1922
1909
1909
1906
1906
1913
1907
1913
1910
1910
1908
1909
1913
1925
1939
1931
1936
1921
1940
1982
1983
1990
1979
1949
1931
1915
1902
1892
1904
1908
1895
1897
1899
1901
1905
1900
1911
1913
1927
1925
1939
1944
1919
1881
1916
1927
1797
1688
1614
1820
2170
2691
3418
4095
4095
3913
2843
1316
1037
965
1119
1375
1406
1430
1680
1987
2027
2024
2048
2113
2119
2123
2126
2141
2162
2178
2202
2215
2229
2257
2274
2289
2312
2336
2357
2384
2418
2438
2473
2504
2534
2561
2591
2603
2613
2629
2627
2625
2622
2605
2569
2514
2439
2349
2261
2178
2100
2030
1987
1933
1909
1874
1852
1838
1828
1828
1821
1819
1819
1822
1812
1810
1805
1804
1816
1819
1821
1823
1833
1831
1840
1842
1845
1847
1856
1861
1866
1868
1873
1877
1884
1886
1876
1875
1873
1876
1870
1868
1865
1865
1865
1863
1867
1859
1866
1856
1860
1850
1866
1866
1864
1864
1862
1868
1876
1873
1873
1875
1873
1874
1873
1874
1892
1901
1912
1903
1916
1934
1950
1969
1969
1957
1940
1931
1906
1887
1885
1879
1883
1881
1886
1889
1887
1892
1896
1894
1908
1919
1924
1928
1949
1940
1905
1891
1937
1911
1769
1653
1681
1963
2380
2964
3754
4095
4095
3799
2353
1124
1070
999
1260
1447
1444
1524
1858
2081
2068
2059
2108
2165
2171
2171
2171
2188
2204
2238
2247
2257
2287
2303
2319
2335
2363
2382
2404
2421
2438
2439
2437
2426
2403
2386
2376
2365
2352
2337
2307
2286
2240
2192
2107
1999
1880
1762
1634
1522
1414
1311
1225
1137
1072
1015
963
937
911
895
884
870
863
845
845
837
837
846
862
872
879
880
883
894
903
915
915
921
928
955
963
974
978
981
989
998
1008
1005
1006
1016
1013
1010
1020
1015
1026
1031
1027
1023
1026
1036
1039
1046
1049
1056
1061
1074
1082
1094
1090
1113
1121
1147
1181
1185
1196
1187
1172
1161
1137
1109
1107
1101
1093
1106
1109
1105
1124
1143
1144
1146
1158
1182
1197
1229
1233
1244
1253
1221
1183
1233
1247
1120
974
981
1282
1715
2284
3072
3646
3489
3163
1791
404
361
322
634
942
972
1107
1374
1525
1501
1472
1534
1638
1650
1636
1656
1710
1747
1770
1796
1820
1850
1869
1892
1923
1939
1967
1998
2014
2061
2091
2130
2174
2211
2251
2283
2304
2324
2334
2351
2348
2346
2330
2283
2223
2143
2056
1965
1881
1808
1749
1695
1647
1618
1596
1590
1579
1577
1573
1572
1579
1589
1585
1601
1599
1609
1614
1631
1637
1636
1649
1656
1672
1675
1677
1699
1710
1699
1704
1730
1738
1731
1729
1751
1754
1741
1742
1759
1754
1748
1753
1751
1753
1751
1749
1741
1732
1753
1765
1770
1758
1772
1783
1815
1836
1883
1904
1877
1861
1865
1835
1808
1792
1781
1777
1760
1749
1757
1758
1745
1743
1745
1733
1726
1731
1723
1724
1714
1711
1699
1654
1627
1657
1583
1403
1239
1250
1485
1865
2436
3221
3629
3378
2830
1173
125
170
213
640
956
1089
1387
1835
2063
2172
2245
2398
2530
2566
2590
2642
2701
2753
2785
2799
2837
2875
2905
2919
2924
2944
2950
2961
2971
2980
2990
3002
3022
3029
3043
3053
3061
3056
3055
3044
3025
3010
2957
2881
2796
2693
2577
2493
2401
2311
2246
2181
2139
2117
2103
2092
2076
2092
2095
2102
2117
2133
2141
2149
2160
2179
2202
2226
2238
2261
2294
2320
2337
2354
2376
2388
2420
2448
2450
2471
2501
2506
2516
2532
2528
2540
2539
2539
2531
2547
2534
2541
2567
2581
2590
2601
2636
2670
2729
2771
2792
2792
2773
2768
2738
2726
2707
2702
2703
2714
2730
2729
2730
2743
2754
2749
2769
2791
2805
2823
2841
2851
2864
2870
2836
2816
2846
2786
2617
2494
2467
2675
3003
3552
4095
4095
4095
4095
2972
1788
1664
1550
1747
1904
1911
1973
2298
2552
2589
2592
2642
2692
2691
2710
2711
2714
2731
2759
2769
2798
2824
2857
2893
2938
2975
2997
3029
3040
3044
3071
3090
3105
3118
3134
3133
3131
3127
3121
3109
3081
3053
3008
2935
2846
2734
2637
2517
2436
2342
2260
2194
2143
2120
2080
2063
2054
2045
2065
2060
2062
2077
2081
2078
2085
2088
2073
2069
2079
2066
2051
2053
2041
2032
2017
2002
1997
1976
1973
1959
1951
1950
1945
1937
1942
1951
1949
1938
1963
2004
2039
2056
2079
2061
2058
2070
2042
2047
2032
2040
2050
2053
2059
2045
2063
2067
2068
2069
2067
2083
2105
2108
2115
2120
2132
2125
2110
2122
2141
2031
1935
1867
1973
2261
2681
3375
4095
4095
4095
3281
1739
1274
1185
1188
1453
1499
1515
1688
2035
2191
2212
2250
2333
2337
2357
2411
2428
2460
2498
2535
2564
2585
2629
2661
2690
2724
2758
2789
2829
2860
2898
2941
2977
3013
3037
3056
3071
3084
3094
3090
3082
3060
3034
2984
2899
2826
2734
2648
2578
2491
2435
2382
2350
2313
2285
2279
2253
2246
2228
2200
2186
2175
2162
2157
2145
2144
2122
2122
2126
2114
2110
2115
2117
2123
2132
2133
2128
2145
2160
2159
2163
2156
2158
2171
2202
2229
2236
2243
2240
2210
2180
2158
2122
2105
2083
2065
2056
2055
2036
2045
2036
2034
2045
2039
2035
2031
2047
2048
2035
2040
2016
1978
1950
2003
1984
1862
1755
1743
2001
2379
2929
3652
4095
3992
3577
2268
1072
994
900
1117
1335
1358
1437
1760
1996
1996
2003
2038
2065
2074
2074
2084
2108
2121
2143
2156
2172
2202
2216
2236
2260
2289
2322
2348
2381
2418
2454
2489
2530
2569
2583
2606
2617
2619
2625
2628
2626
2615
2594
2541
2468
2400
2306
2248
2185
2130
2081
2039
2017
1987
1968
1959
1956
1939
1917
1910
1906
1902
1886
1889
1886
1890
1902
1901
1895
1900
1920
1937
1936
1939
1953
1958
1965
1986
1984
1999
2037
2065
2062
2058
2028
2007
1999
1971
1945
1935
1931
1924
1925
1921
1933
1939
1945
1950
1944
1956
1979
2003
2003
2015
2012
2038
2016
2005
2005
2046
1986
1873
1774
1873
2217
2677
3294
4044
4095
3968
3332
1768
1019
1027
1025
1332
1466
1492
1669
2002
2083
2065
2053
2110
2139
2137
2128
2136
2155
2179
2178
2157
2163
2163
2166
2167
2164
2184
2199
2218
2237
2253
2274
2282
2301
2320
2333
2341
2342
2339
2335
2339
2320
2280
2219
2139
2042
1946
1849
1764
1677
1608
1552
1502
1463
1443
1411
1391
1383
1370
1371
1377
1381
1380
1391
1400
1401
1414
1431
1441
1444
1467
1474
1485
1501
1516
1528
1547
1543
1552
1557
1586
1622
1640
1653
1650
1647
1649
1635
1615
1617
1618
1627
1640
1657
1673
1695
1724
1740
1750
1778
1783
1807
1849
1865
1892
1914
1922
1919
1888
1872
1947
1910
1773
1641
1716
2058
2529
3161
3972
4095
4094
3546
1924
949
1000
995
1375
1558
1571
1755
2060
2152
2123
2089
2165
2232
2223
2213
2231
2269
2299
2316
2324
2350
2355
2379
2387
2412
2434
2456
2473
2509
2548
2583
2618
2647
2676
2699
2723
2744
2749
2754
2755
2736
2712
2657
2579
2487
2396
2308
2218
2151
2082
2035
2001
1970
1937
1922
1905
1897
1873
1853
1835
1825
1817
1809
1799
1785
1787
1785
1782
1774
1778
1771
1754
1768
1751
1754
1739
1740
1724
1723
1727
1719
1720
1717
1730
1708
1728
1733
1737
1751
1759
1765
1791
1848
1852
1874
1865
1844
1826
1814
1793
1770
1762
1748
1722
1726
1730
1716
1717
1710
1691
1686
1682
1695
1691
1703
1699
1683
1688
1667
1638
1668
1698
1575
1450
1390
1550
1892
2390
3109
3901
4014
3725
2683
1002
616
578
713
1063
1114
1153
1432
1684
1674
1637
1644
1724
1757
1756
1740
1761
1807
1840
1840
1859
1872
1903
1937
1937
1948
1962
1995
2015
2056
2074
2069
2101
2127
2136
2143
2147
2157
2175
2186
2159
2160
2150
2113
2066
1991
1915
1840
1770
1699
1647
1590
1558
1536
1486
1490
1493
1491
1489
1508
1511
1524
1544
1546
1559
1577
1600
1613
1630
1655
1666
1699
1712
1720
1749
1784
1802
1814
1845
1862
1880
1913
1926
1946
1969
1987
2015
2023
2044
2045
2065
2073
2102
2171
2179
2194
2182
2150
2139
2112
2095
2080
2052
2051
2046
2037
2042
2068
2061
2072
2083
2083
2091
2118
2147
2156
2168
2203
2207
2190
2187
2229
2207
2087
2003
1999
2229
2596
3159
3941
4095
4095
4078
2782
1588
1480
1378
1590
1773
1797
1859
2156
2426
2459
2481
2538
2582
2584
2601
2610
2621
2634
2664
2681
2704
2725
2747
2784
2815
2839
2872
2890
2930
2961
2992
3031
3055
3085
3103
3110
3113
3122
3113
3123
3123
3092
3062
3011
2939
2855
2771
2684
2612
2552
2500
2447
2406
2379
2372
2352
2334
2309
2301
2301
2292
2284
2261
2271
2285
2280
2284
2279
2295
2299
2301
2304
2300
2320
2330
2331
2328
2325
2345
2353
2351
2375
2372
2366
2382
2361
2368
2391
2431
2442
2449
2444
2411
2391
2371
2358
2329
2309
2293
2274
2288
2279
2273
2277
2270
2252
2255
2259
2269
2276
2277
2257
2260
2249
2225
2214
2248
2220
2081
1982
1982
2204
2565
3123
3910
4095
4095
3850
2483
1426
1356
1252
1481
1617
1629
1693
1992
2251
2282
2303
2356
2386
2381
2396
2390
2393
2404
2421
2439
2435
2451
2469
2484
2495
2510
2527
2556
2568
2591
2613
2624
2643
2655
2669
2673
2675
2671
2664
2659
2638
2616
2572
2521
2440
2361
2280
2200
2134
2088
2029
1990
1957
1923
1894
1870
1849
1831
1815
1809
1796
1775
1770
1763
1770
1770
1769
1761
1747
1754
1753
1752
1742
1727
1722
1728
1703
1712
1694
1680
1677
1653
1631
1612
1594
1571
1558
1535
1513
1508
1525
1550
1550
1562
1534
1487
1469
1426
1401
1382
1351
1333
1316
1314
1308
1312
1307
1305
1291
1304
1316
1324
1332
1340
1350
1355
1332
1304
1330
1359
1244
1134
1074
1259
1641
2160
2893
3584
3553
3207
2124
668
438
435
595
878
932
980
1265
1529
1538
1536
1564
1642
1668
1672
1687
1730
1757
1796
1804
1821
1848
1872
1895
1907
1941
1963
1987
2026
2053
2089
2111
2141
2158
2195
2220
2228
2234
2233
2238
2243
2218
2203
2147
2086
2010
1933
1861
1786
1743
1687
1649
1626
1601
1581
1575
1561
1558
1568
1568
1571
1565
1565
1579
1583
1591
1595
1592
1604
1609
1615
1626
1635
1643
1645
1645
1652
1651
1657
1657
1661
1661
1663
1662
1660
1660
1660
1662
1658
1661
1657
1660
1664
1671
1681
1680
1688
1691
1699
1713
1718
1721
1757
1785
1804
1818
1804
1780
1749
1722
1710
1699
1676
1666
1659
1648
1641
1632
1633
1628
1613
1597
1611
1609
1608
1597
1595
1597
1552
1512
1539
1547
1418
1258
1224
1488
1911
2479
3248
3866
3692
3355
2071
629
549
527
806
1109
1155
1280
1530
1708
1706
1665
1695
1794
1809
1798
1789
1832
1852
1879
1895
1922
1938
1945
1958
1977
1987
2002
2026
2034
2055
2072
2098
2114
2127
2144
2150
2156
2146
2148
2141
2138
2120
2095
2041
1979
1903
1818
1735
1654
1592
1537
1494
1458
1420
1399
1390
1386
1386
1385
1385
1388
1387
1388
1397
1402
1411
1421
1415
1426
1430
1441
1437
1454
1462
1457
1457
1463
1453
1458
1467
1459
1454
1460
1469
1461
1451
1454
1443
1449
1447
1443
1448
1445
1431
1431
1446
1428
1430
1437
1436
1451
1460
1463
1465
1477
1499
1504
1488
1517
1531
1546
1566
1582
1587
1619
1661
1695
1721
1737
1715
1703
1693
1664
1664
1654
1646
1651
1673
1673
1672
1684
1686
1672
1666
1686
1691
1701
1707
1700
1707
1716
1668
1662
1713
1647
1500
1380
1491
1801
2243
2882
3708
4085
3900
3317
1636
816
861
871
1241
1399
1406
1592
1921
1995
1959
1964
2044
2108
2111
2101
2135
2176
2203
2234
2237
2268
2296
2322
2346
2366
2388
2412
2441
2487
2529
2573
2611
2639
2666
2700
2732
2747
2749
2744
2748
2741
2716
2693
2647
2589
2525
2459
2380
2327
2278
2228
2181
2146
2130
2113
2112
2120
2122
2123
2125
2133
2147
2160
2168
2179
2177
2204
2204
2214
2230
2236
2254
2266
2267
2264
2285
2285
2288
2299
2305
2310
2316
2324
2331
2338
2324
2336
2333
2337
2339
2336
2331
2345
2364
2364
2366
2368
2370
2382
2396
2410
2416
2412
2425
2425
2461
2509
2530
2560
2547
2519
2512
2483
2487
2471
2441
2428
2413
2429
2455
2446
2428
2431
2426
2434
2449
2461
2462
2467
2469
2467
2435
2433
2485
2471
2334
2251
2228
2435
2763
3267
4041
4095
4095
4095
3046
1785
1651
1540
1691
1890
1915
1960
2230
2504
2544
2559
2615
2654
2626
2652
2663
2672
2675
2698
2717
2725
2758
2776
2787
2814
2846
2860
2881
2902
2941
2947
2974
3003
3007
3037
3046
3046
3043
3041
3038
3041
3015
2977
2922
2863
2778
2690
2612
2518
2468
2415
2364
2322
2298
2265
2246
2232
2222
2205
2203
2200
2179
2184
2178
2183
2183
2182
2185
2172
2187
2200
2194
2202
2205
2180
2191
2204
2202
2198
2202
2194
2189
2181
2176
2162
2151
2165
2139
2133
2141
2124
2145
2137
2130
2133
2131
2150
2182
2209
2227
2231
2217
2192
2169
2143
2134
2106
2089
2071
2063
2061
2063
2060
2048
2050
2054
2069
2068
2068
2066
2059
2094
2051
2023
2028
2057
1967
1842
1753
1825
2095
2502
3171
3947
4095
4010
3274
1757
1183
1125
1114
1376
1438
1464
1606
1959
2109
2112
2147
2222
2225
2231
2257
2261
2281
2299
2326
2334
2342
2378
2391
2405
2422
2440
2463
2491
2513
2540
2577
2605
2623
2649
2666
2676
2689
2689
2676
2679
2658
2636
2583
2516
2448
2367
2294
2234
2155
2106
2065
2033
2010
1988
1970
1942
1934
1927
1931
1930
1923
1924
1923
1936
1932
1948
1937
1928
1949
1952
1948
1963
1959
1953
1974
1964
1952
1949
1955
1973
1959
1961
1951
1939
1947
1942
1928
1925
1920
1930
1929
1937
1948
1945
1957
1960
1960
2006
2025
2039
2043
1998
1988
1964
1935
1923
1898
1891
1883
1887
1884
1885
1889
1899
1880
1887
1901
1911
1925
1917
1916
1909
1899
1869
1889
1901
1789
1645
1569
1778
2152
2686
3428
4094
3994
3658
2531
1083
884
875
1058
1353
1413
1484
1786
2015
2032
2004
2013
2096
2123
2119
2100
2125
2152
2180
2201
2212
2220
2249
2268
2287
2310
2328
2344
2379
2414
2435
2464
2494
2506
2527
2538
2545
2552
2558
2552
2549
2525
2494
2446
2378
2306
2217
2146
2078
2016
1970
1928
1888
1871
1858
1847
1831
1835
1832
1807
1823
1813
1807
1813
1812
1808
1810
1823
1823
1819
1821
1820
1826
1836
1839
1833
1840
1846
1846
1851
1845
1852
1852
1850
1847
1840
1838
1839
1844
1837
1838
1841
1844
1848
1849
1860
1858
1867
1867
1866
1890
1937
1968
1981
1994
1968
1943
1924
1895
1879
1864
1855
1839
1836
1823
1837
1830
1813
1821
1809
1821
1838
1832
1823
1828
1852
1831
1801
1769
1830
1797
1645
1509
1522
1839
2305
2903
3704
4095
3934
3488
1966
847
882
868
1234
1452
1492
1653
1928
2039
2011
1973
2043
2120
2107
2079
2093
2126
2147
2162
2168
2194
2215
2238
2253
2270
2290
2318
2342
2356
2389
2414
2449
2478
2510
2522
2534
2555
2561
2559
2562
2551
2528
2500
2450
2381
2309
2233
2158
2084
2025
1983
1942
1904
1881
1863
1864
1854
1857
1841
1830
1837
1832
1825
1826
1823
1829
1830
1836
1830
1832
1847
1855
1853
1860
1863
1865
1871
1864
1873
1883
1885
1886
1874
1876
1874
1879
1879
1866
1864
1872
1875
1874
1876
1869
1862
1879
1872
1879
1879
1882
1870
1871
1882
1878
1880
1886
1896
1898
1909
1902
1903
1917
1959
1991
1991
1992
1953
1956
1943
1916
1892
1866
1858
1858
1857
1844
1843
1858
1864
1867
1862
1865
1869
1887
1882
1882
1892
1874
1847
1852
1887
1773
1644
1570
1713
2025
2505
3197
3983
4095
3923
3047
1385
942
898
965
1293
1361
1365
1594
1915
1941
1905
1916
1980
2005
2028
2023
2020
2050
2082
2093
2106
2124
2144
2170
2194
2235
2248
2285
2330
2365
2405
2438
2477
2510
2542
2568
2577
2581
2596
2601
2600
2598
2581
2550
2504
2444
2376
2296
2224
2165
2105
2070
2031
2010
1971
1963
1954
1938
1958
1962
1945
1952
1967
1973
1983
2012
2006
2009
2034
2038
2046
2053
2077
2090
2098
2102
2102
2103
2129
2135
2106
2109
2119
2120
2129
2118
2101
2120
2126
2146
2136
2127
2134
2136
2136
2133
2137
2147
2164
2165
2158
2148
2162
2200
2234
2260
2287
2258
2230
2223
2188
2186
2180
2174
2153
2156
2181
2191
2198
2218
2231
2249
2273
2289
2291
2305
2339
2356
2347
2343
2361
2436
2419
2315
2254
2269
2515
2864
3446
4095
4095
4095
4095
2833
1855
1783
1688
1921
2052
2087
2186
2444
2698
2786
2828
2904
2940
2937
2948
2971
3001
3008
3042
3060
3087
3106
3115
3156
3154
3169
3234
3243
3274
3311
3332
3365
3398
3417
3437
3418
3427
3387
3363
3339
3271
3238
3166
3086
2977
2876
2754
2650
2562
2449
2371
2279
2238
2194
2160
2136
2097
2098
2081
2063
2063
2042
2050
2034
2014
2014
2012
2004
2015
2012
2005
1998
2006
2003
2003
2016
2006
1997
2000
2009
2014
2014
2016
2006
2012
2013
1994
2017
2012
1998
2009
2009
2031
2062
2098
2092
2079
2062
2042
1992
1991
1977
1946
1928
1913
1908
1890
1898
1886
1892
1896
1895
1909
1919
1908
1878
1886
1870
1852
1869
1921
1892
1814
1738
1721
1940
2296
2839
3596
4054
3934
3528
2258
1261
1161
1041
1225
1344
1370
1440
1713
1970
2023
2044
2108
2149
2115
2114
2121
2109
2112
2136
2140
2144
2152
2152
2180
2190
2186
2194
2219
2234
2260
2286
2290
2321
2346
2376
2370
2373
2394
2383
2366
2342
2320
2268
2213
2130
2051
1976
1912
1820
1744
1679
1633
1604
1558
1523
1525
1523
1505
1491
1519
1533
1506
1515
1530
1560
1565
1569
1603
1615
1588
1594
1617
1592
1633
1666
1567
1552
1650
1673
1596
1558
1635
1624
1629
1662
1615
1601
1662
1726
1723
1732
1737
1731
1749
1718
1691
1651
1615
1587
1586
1568
1513
1500
1513
1484
1450
1441
1461
1461
1459
1428
1423
1425
1382
1355
1399
1425
1317
1239
1167
1319
1671
2196
2938
3658
3712
3393
2343
883
597
525
648
899
947
989
1230
1567
1644
1651
1697
1788
1825
1841
1888
1907
1908
1956
1983
1972
1961
1982
1987
1989
1998
2024
2048
2074
2099
2127
2161
2202
2234
2265
2283
2291
2314
2302
2299
2299
2296
2248
2177
2119
2042
1953
1870
1823
1760
1728
1708
1657
1633
1647
1632
1619
1630
1642
1638
1637
1630
1596
1623
1644
1629
1594
1612
1605
1598
1637
1625
1584
1596
1629
1613
1606
1604
1618
1612
1630
1630
1583
1608
1627
1615
1596
1625
1677
1671
1671
1668
1645
1613
1606
1593
1531
1525
1548
1554
1530
1533
1549
1555
1562
1557
1568
1596
1616
1643
1652
1665
1707
1707
1686
1672
1731
1690
1567
1454
1562
1911
2427
3120
3939
4095
3826
3039
1395
770
778
835
1178
1310
1334
1558
1883
1949
1904
1890
1969
1995
2001
1990
2015
2038
2078
2089
2113
2126
2133
2156
2156
2191
2204
2213
2219
2232
2267
2284
2292
2312
2333
2351
2365
2363
2348
2350
2351
2320
2279
2226
2155
2057
1970
1868
1798
1731
1659
1613
1568
1550
1529
1505
1502
1497
1509
1493
1498
1496
1504
1510
1514
1504
1504
1510
1517
1521
1517
1534
1543
1551
1547
1552
1556
1552
1571
1575
1567
1579
1583
1583
1588
1585
1592
1586
1606
1614
1620
1633
1633
1649
1698
1736
1764
1777
1775
1755
1747
1725
1694
1690
1690
1686
1689
1689
1694
1697
1708
1715
1708
1715
1739
1751
1766
1774
1768
1784
1757
1719
1735
1778
1691
1538
1433
1588
1982
2510
3219
4019
4095
3833
2965
1265
760
774
869
1233
1330
1378
1628
1903
1933
1897
1882
1985
2023
2002
1985
1998
2031
2059
2080
2084
2108
2125
2149
2166
2197
2212
2243
2269
2298
2326
2351
2399
2424
2452
2479
2492
2506
2512
2517
2508
2497
2464
2418
2348
2265
2180
2095
2021
1947
1887
1850
1796
1777
1747
1721
1724
1714
1703
1712
1704
1698
1703
1705
1706
1711
1719
1710
1715
1727
1731
1736
1744
1755
1747
1758
1763
1753
1760
1769
1762
1761
1767
1766
1763
1769
1767
1765
1762
1764
1764
1764
1774
1767
1765
1767
1766
1787
1800
1795
1796
1818
1822
1871
1921
1926
1937
1928
1904
1896
1877
1860
1849
1828
1828
1830
1838
1848
1847
1846
1844
1855
1857
1880
1890
1896
1907
1904
1929
1916
1877
1884
1936
1871
1724
1612
1722
2082
2552
3209
4028
4095
4095
3448
1772
1003
1019
1047
1414
1560
1576
1787
2110
2188
2162
2158
2246
2286
2290
2277
2282
2323
2356
2369
2368
2398
2414
2430
2458
2477
2500
2525
2545
2557
2583
2606
2633
2656
2667
2701
2706
2722
2724
2714
2722
2703
2682
2642
2591
2515
2439
2368
2289
2217
2166
2120
2074
2053
2022
2000
1991
1989
1986
1976
1978
1973
1964
1965
1969
1982
1984
1992
1994
1994
2005
2011
2020
2020
2032
2039
2043
2044
2035
2030
2041
2038
2047
2042
2049
2047
2052
2057
2047
2059
2051
2042
2035
2040
2041
2053
2063
2058
2062
2065
2086
2091
2134
2159
2159
2168
2142
2122
2101
2084
2066
2051
2054
2039
2042
2039
2045
2053
2049
2053
2054
2045
2067
2085
2088
2097
2119
2111
2081
2049
2059
2092
1992
1870
1806
1955
2269
2750
3466
4095
4095
4095
3202
1646
1247
1153
1216
1488
1526
1530
1724
2068
2194
2206
2251
2317
2316
2328
2353
2348
2370
2396
2424
2435
2454
2488
2504
2535
2554
2568
2599
2626
2648
2672
2698
2715
2734
2755
2773
2783
2786
2792
2784
2777
2765
2729
2684
2618
2554
2468
2385
2311
2255
2189
2145
2114
2075
2062
2045
2029
2019
2011
2019
2011
2012
2011
2009
2012
2024
2033
2041
2049
2049
2052
2056
2067
2070
2068
2075
2074
2080
2084
2075
2067
2067
2046
2045
2041
2033
2030
2034
2027
2027
2034
2037
2039
2040
2042
2045
2083
2117
2129
2138
2120
2097
2071
2048
2030
2013
1997
1992
1981
1989
1991
2008
2013
2010
2012
2019
2025
2047
2053
2050
2053
2065
2052
2019
2024
2083
2003
1873
1761
1811
2085
2502
3143
3944
4095
4095
3555
1996
1209
1172
1153
1433
1527
1542
1659
2031
2204
2193
2218
2291
2322
2335
2343
2353
2370
2395
2422
2425
2421
2444
2469
2487
2510
2537
2560
2581
2619
2642
2674
2717
2739
2762
2779
2790
2789
2798
2795
2788
2768
2745
2677
2612
2540
2461
2385
2315
2243
2180
2145
2098
2066
2047
2025
2012
2002
1993
1993
1991
1983
1988
1994
2006
2020
2020
2010
2020
2021
2026
2033
2034
2037
2047
2056
2053
2041
2052
2045
2038
2039
2031
2023
2015
2021
2004
2001
2008
1997
2000
1996
1996
1990
1996
2003
2019
2011
2007
2004
1996
2020
2063
2076
2091
2085
2042
2040
2007
1984
1970
1948
1927
1922
1934
1923
1938
1939
1931
1942
1952
1945
1976
1980
1989
1979
1991
1983
1947
1933
1960
1949
1814
1679
1653
1921
2338
2908
3683
4095
4085
3706
2371
1062
978
935
1180
1438
1473
1573
1894
2091
2076
2047
2090
2167
2175
2158
2150
2171
2201
2240
2239
2246
2273
2280
2301
2334
2345
2365
2394
2413
2439
2472
2494
2525
2540
2560
2574
2580
2590
2591
2578
2579
2553
2523
2480
2410
2332
2248
2174
2103
2048
1994
1950
1922
1895
1877
1871
1862
1851
1849
1846
1842
1844
1853
1843
1849
1856
1860
1871
1875
1875
1879
1884
1889
1888
1890
1889
1898
1898
1899
1893
1895
1896
1886
1888
1891
1876
1885
1884
1876
1878
1876
1873
1866
1872
1873
1871
1878
1880
1877
1883
1886
1886
1887
1887
1902
1902
1916
1922
1920
1937
1972
1989
2008
2019
1995
1971
1981
1942
1924
1930
1898
1893
1896
1908
1896
1909
1910
1907
1909
1914
1925
1920
1955
1936
1945
1955
1929
1901
1902
1950
1863
1712
1600
1736
2101
2602
3277
4068
4095
3927
3163
1492
938
978
1057
1435
1542
1586
1806
2067
2111
2069
2054
2146
2183
2167
2151
2168
2196
2212
2222
2234
2256
2265
2288
2296
2313
2342
2358
2380
2402
2417
2443
2463
2496
2522
2542
2566
2570
2565
2570
2577
2570
2558
2520
2456
2399
2323
2250
2176
2103
2045
2004
1965
1943
1912
1894
1886
1870
1871
1868
1871
1884
1885
1888
1894
1898
1911
1919
1924
1928
1932
1945
1938
1951
1938
1943
1938
1952
1943
1931
1940
1929
1923
1927
1920
1908
1897
1902
1898
1885
1891
1886
1870
1875
1879
1868
1877
1885
1882
1883
1889
1883
1877
1882
1871
1864
1856
1856
1856
1878
1877
1894
1884
1874
1888
1905
1938
1950
1955
1938
1925
1901
1893
1871
1860
1854
1833
1836
1846
1851
1849
1852
1842
1848
1849
1865
1864
1870
1884
1897
1876
1852
1819
1873
1838
1697
1582
1606
1879
2261
2839
3610
4095
4038
3632
2177
1038
1001
946
1222
1419
1428
1508
1852
2045
2034
2019
2082
2129
2135
2131
2135
2144
2178
2204
2205
2232
2247
2274
2289
2308
2327
2343
2377
2398
2415
2445
2471
2493
2510
2519
2519
2533
2543
2538
2534
2525
2512
2476
2445
2374
2300
2244
2169
2093
2038
1982
1939
1910
1890
1856
1841
1841
1820
1810
1811
1813
1824
1830
1838
1837
1841
1863
1862
1869
1880
1884
1886
1893
1901
1897
1911
1918
1912
1908
1920
1915
1915
1908
1900
1898
1902
1912
1898
1887
1893
1893
1895
1904
1892
1894
1895
1898
1901
1892
1902
1898
1902
1901
1892
1906
1906
1903
1910
1909
1912
1932
1968
1965
1956
1962
1935
1925
1916
1888
1877
1879
1876
1875
1877
1877
1881
1880
1881
1887
1908
1926
1926
1924
1933
1931
1902
1887
1939
1883
1749
1646
1653
1897
2260
2846
3626
4095
4036
3614
2186
1119
1066
979
1234
1401
1421
1487
1824
2061
2062
2076
2132
2166
2160
2187
2193
2200
2230
2257
2250
2262
2281
2307
2326
2340
2366
2385
2414
2453
2467
2489
2515
2531
2549
2567
2579
2588
2588
2594
2580
2565
2564
2533
2482
2429
2359
2294
2231
2174
2117
2062
2029
2002
1975
1955
1944
1935
1920
1924
1910
1910
1916
1923
1925
1919
1925
1928
1934
1937
1942
1939
1933
1944
1946
1948
1947
1945
1936
1936
1938
1929
1926
1915
1907
1904
1896
1902
1898
1897
1896
1898
1904
1908
1914
1921
1912
1921
1919
1921
1923
1921
1920
1911
1917
1910
1905
1908
1901
1919
1931
1935
1937
1931
1945
1969
1982
1990
1982
1978
1958
1940
1922
1921
1919
1925
1930
1930
1930
1920
1929
1920
1930
1952
1942
1939
1949
1959
1928
1899
1937
1928
1803
1669
1622
1871
2243
2790
3539
4095
4053
3727
2477
1114
995
961
1189
1473
1496
1555
1868
2083
2066
2059
2083
2164
2176
2171
2163
2175
2207
2237
2231
2249
2263
2277
2300
2315
2331
2345
2366
2394
2416
2443
2473
2483
2520
2530
2531
2538
2528
2538
2524
2518
2504
2481
2437
2395
2327
2249
2191
2127
2065
2015
1976
1945
1926
1912
1901
1886
1875
1882
1868
1872
1875
1874
1872
1883
1887
1890
1900
1898
1907
1907
1908
1905
1898
1907
1895
1893
1893
1884
1885
1887
1877
1881
1874
1871
1869
1864
1868
1874
1870
1857
1870
1869
1873
1883
1876
1882
1877
1884
1873
1872
1879
1882
1868
1865
1868
1875
1870
1865
1867
1872
1897
1906
1896
1887
1904
1943
1966
1970
1962
1938
1916
1910
1878
1868
1873
1877
1879
1871
1865
1858
1855
1863
1869
1876
1899
1900
1905
1910
1881
1856
1916
1897
1748
1611
1605
1860
2247
2809
3576
4095
3986
3632
2261
1016
986
946
1195
1457
1485
1581
1912
2066
2039
2029
2080
2153
2166
2159
2155
2190
2215
2222
2228
2260
2264
2294
2306
2316
2345
2366
2386
2407
2435
2465
2493
2514
2523
2523
2542
2553
2535
2541
2539
2523
2513
2495
2448
2394
2336
2267
2184
2127
2081
2025
1985
1955
1914
1889
1890
1868
1853
1843
1832
1825
1819
1832
1819
1827
1846
1845
1840
1846
1847
1852
1859
1868
1858
1872
1890
1894
1891
1885
1889
1882
1886
1880
1881
1883
1894
1879
1879
1882
1877
1897
1878
1882
1878
1880
1884
1882
1879
1884
1885
1883
1874
1872
1877
1877
1879
1875
1885
1889
1916
1910
1904
1910
1907
1952
1965
1967
1966
1934
1908
1888
1876
1867
1886
1880
1869
1875
1874
1888
1894
1894
1904
1909
1925
1928
1928
1918
1887
1873
1927
1866
1722
1636
1675
1915
2272
2852
3641
4095
4002
3549
2075
1117
1080
1008
1254
1396
1437
1507
1850
2058
2051
2076
2151
2189
2184
2204
2219
2225
2249
2284
2303
2319
2336
2360
2377
2400
2434
2451
2464
2489
2515
2538
2559
2580
2585
2607
2614
2606
2611
2601
2601
2581
2550
2523
2488
2433
2372
2291
2216
2149
2103
2052
2000
1973
1954
1927
1920
1909
1889
1891
1898
1896
1886
1897
1899
1896
1909
1904
1908
1919
1921
1938
1937
1942
1956
1958
1960
1963
1961
1957
1978
1969
1960
1963
1949
1949
1954
1944
1941
1938
1939
1934
1927
1930
1933
1921
1925
1917
1914
1925
1928
1930
1939
1950
1953
1950
1941
1976
1994
2000
2007
1970
1949
1937
1930
1908
1902
1908
1918
1922
1919
1898
1892
1910
1937
1941
1939
1937
1961
1956
1930
1904
1937
1936
1804
1683
1643
1834
2159
2680
3418
4061
4052
3754
2536
1244
1097
993
1186
1367
1376
1433
1715
2004
2049
2044
2092
2151
2158
2169
2167
2186
2204
2226
2243
2256
2268
2301
2332
2342
2360
2382
2417
2429
2463
2486
2503
2532
2550
2567
2574
2579
2582
2563
2550
2533
2508
2484
2436
2362
2293
2226
2158
2096
2033
1983
1941
1901
1871
1847
1833
1824
1822
1797
1785
1798
1791
1794
1792
1795
1795
1798
1819
1808
1809
1817
1819
1812
1828
1837
1832
1834
1826
1815
1833
1822
1821
1822
1805
1811
1803
1798
1785
1776
1786
1781
1776
1777
1783
1766
1778
1782
1760
1769
1780
1777
1783
1794
1797
1801
1829
1860
1873
1876
1863
1831
1814
1786
1783
1764
1755
1763
1772
1783
1773
1782
1780
1783
1807
1814
1821
1835
1842
1852
1840
1808
1795
1844
1796
1649
1517
1561
1861
2288
2876
3675
4093
3872
3386
1859
891
916
895
1202
1392
1421
1581
1910
2017
2000
1992
2046
2115
2103
2088
2102
2123
2147
2166
2169
2198
2216
2244
2255
2275
2295
2324
2342
2364
2392
2409
2431
2462
2480
2485
2503
2504
2501
2495
2489
2480
2456
2427
2375
2308
2245
2177
2105
2041
1990
1951
1911
1884
1865
1850
1831
1829
1815
1815
1810
1827
1814
1813
1834
1827
1839
1837
1847
1848
1859
1864
1865
1866
1885
1889
1875
1886
1879
1887
1891
1885
1885
1875
1888
1885
1871
1884
1876
1877
1887
1899
1896
1909
1909
1912
1927
1969
1994
2004
2008
1961
1945
1933
1902
1893
1881
1858
1856
1865
1856
1861
1860
1863
1856
1855
1866
1874
1892
1902
1896
1907
1906
1877
1866
1935
1875
1728
1605
1637
1903
2323
2930
3740
4095
4050
3548
1990
1002
980
948
1271
1457
1481
1625
1976
2101
2062
2049
2100
2153
2145
2134
2114
2138
2167
2177
2196
2217
2249
2258
2280
2302
2329
2366
2387
2408
2428
2451
2482
2489
2514
2528
2531
2542
2537
2531
2510
2504
2481
2440
2399
2330
2243
2175
2113
2045
1993
1939
1898
1872
1850
1829
1821
1808
1805
1817
1812
1820
1830
1829
1842
1849
1865
1874
1881
1886
1889
1914
1912
1927
1928
1917
1943
1944
1952
1948
1954
1962
1965
1970
1962
1968
1965
1975
1972
1968
1975
2018
2054
2057
2075
2054
2030
2043
2021
1986
1980
1973
1960
1969
1967
1966
1969
1966
1971
1968
1983
1989
1997
1997
2006
2024
2038
2010
1975
1998
2060
1967
1844
1749
1848
2154
2566
3215
3990
4095
4095
3383
1811
1185
1117
1115
1381
1445
1482
1641
1991
2174
2170
2189
2271
2273
2273
2291
2302
2323
2349
2369
2384
2393
2425
2463
2478
2491
2536
2565
2603
2629
2645
2672
2688
2709
2709
2709
2702
2713
2700
2675
2675
2651
2602
2560
2493
2416
2340
2286
2194
2119
2088
2051
2024
1977
1961
1925
1924
1942
1924
1913
1909
1931
1931
1917
1930
1932
1919
1935
1920
1900
1913
1942
1945
1937
1944
1941
1949
1958
1960
1953
1957
1974
1957
1945
1964
1994
2022
2044
2029
1989
1979
1964
1934
1925
1904
1894
1889
1886
1893
1892
1891
1895
1887
1885
1896
1902
1908
1904
1901
1898
1899
1882
1844
1859
1891
1800
1684
1604
1689
1960
2375
3035
3822
4095
3904
3179
1676
1096
1028
1010
1265
1319
1334
1486
1823
2013
2064
2094
2156
2169
2183
2216
2239
2256
2275
2325
2339
2348
2373
2397
2415
2444
2492
2521
2543
2585
2623
2655
2693
2718
2737
2749
2758
2759
2737
2716
2686
2639
2589
2508
2412
2321
2233
2143
2077
2029
1978
1945
1900
1879
1876
1881
1866
1873
1883
1875
1894
1909
1917
1943
1958
1962
1983
1989
1997
2007
2015
2024
2024
2050
2062
2062
2070
2063
2068
2071
2106
2127
2120
2116
2087
2052
2036
2007
1964
1941
1916
1883
1867
1865
1850
1841
1832
1811
1802
1797
1794
1794
1788
1785
1773
1786
1760
1726
1695
1733
1718
1580
1485
1469
1719
2086
2641
3374
3912
3816
3428
2126
893
764
674
886
1070
1096
1156
1455
1739
1756
1759
1806
1836
1843
1861
1869
1876
1898
1934
1942
1952
1981
2008
2025
2046
2073
2101
2125
2155
2179
2207
2240
2257
2281
2294
2305
2305
2311
2308
2294
2260
2232
2178
2096
2024
1937
1856
1796
1725
1671
1629
1589
1570
1560
1551
1544
1543
1537
1546
1546
1550
1565
1566
1578
1593
1606
1623
1643
1659
1670
1682
1706
1722
1743
1771
1786
1795
1812
1814
1822
1842
1877
1910
1925
1927
1922
1899
1889
1867
1852
1832
1821
1823
1815
1814
1824
1831
1828
1835
1843
1834
1833
1846
1844
1845
1858
1877
1864
1844
1825
1855
1865
1746
1632
1616
1868
2255
2823
3590
4095
4095
3755
2451
1076
948
888
1115
1371
1396
1466
1796
2032
2030
2029
2058
2136
2148
2157
2155
2169
2197
2221
2214
2243
2265
2276
2308
2322
2347
2384
2421
2446
2477
2523
2543
2583
2614
2636
2652
2674
2674
2666
2672
2652
2613
2566
2483
2393
2312
2219
2148
2075
2018
1979
1938
1913
1894
1873
1860
1856
1852
1849
1842
1844
1840
1850
1852
1857
1855
1868
1872
1878
1883
1888
1890
1897
1906
1911
1914
1913
1913
1909
1912
1914
1916
1906
1911
1909
1908
1921
1911
1915
1938
1967
1995
2010
2008
1994
1970
1961
1926
1909
1897
1877
1873
1868
1860
1869
1882
1871
1876
1881
1872
1895
1903
1914
1921
1923
1941
1917
1889
1889
1934
1866
1724
1603
1700
2033
2491
3170
4009
4095
4095
3449
1772
960
965
965
1282
1433
1439
1614
1978
2070
2039
2039
2102
2147
2153
2147
2150
2169
2200
2219
2217
2232
2251
2261
2281
2320
2333
2358
2403
2432
2468
2521
2549
2576
2617
2632
2630
2658
2662
2663
2672
2652
2609
2561
2488
2389
2290
2207
2121
2045
2004
1947
1909
1880
1850
1826
1816
1823
1808
1797
1796
1792
1801
1818
1815
1804
1811
1819
1822
1830
1833
1824
1823
1840
1837
1837
1843
1836
1840
1842
1843
1845
1849
1854
1857
1857
1855
1860
1860
1860
1859
1874
1881
1889
1900
1889
1898
1927
1968
1991
2005
2005
1978
1976
1955
1927
1913
1893
1884
1886
1878
1889
1891
1890
1889
1886
1894
1899
1918
1925
1935
1932
1945
1955
1920
1894
1921
1942
1834
1709
1631
1808
2170
2666
3397
4095
4095
4036
3088
1476
1044
990
1062
1348
1397
1414
1637
1995
2067
2049
2070
2122
2132
2144
2147
2148
2165
2195
2209
2221
2255
2266
2293
2329
2352
2379
2405
2430
2456
2489
2528
2554
2582
2611
2629
2641
2647
2647
2651
2650
2631
2596
2534
2445
2359
2266
2176
2099
2025
1970
1916
1875
1842
1826
1821
1810
1808
1794
1787
1793
1796
1789
1798
1798
1800
1804
1805
1812
1819
1829
1837
1842
1842
1849
1854
1852
1862
1871
1871
1873
1880
1872
1863
1872
1872
1871
1885
1885
1880
1881
1880
1876
1869
1881
1877
1884
1894
1887
1887
1884
1895
1926
1969
1974
1979
1953
1931
1918
1909
1894
1877
1880
1868
1871
1872
1880
1887
1888
1901
1896
1879
1893
1913
1917
1928
1928
1933
1921
1896
1867
1904
1875
1745
1633
1650
1937
2343
2965
3778
4095
4095
3695
2224
1088
1032
948
1205
1382
1381
1459
1806
2021
2024
2010
2067
2126
2139
2140
2137
2144
2176
2207
2217
2235
2240
2283
2298
2322
2350
2387
2420
2457
2499
2539
2594
2623
2662
2675
2698
2726
2739
2741
2741
2735
2705
2674
2600
2516
2429
2328
2249
2161
2095
2042
1986
1952
1916
1897
1898
1885
1881
1869
1871
1869
1878
1880
1878
1888
1892
1893
1896
1899
1904
1910
1925
1930
1932
1941
1943
1934
1938
1942
1930
1945
1948
1933
1943
1945
1941
1948
1951
1944
1949
1948
1952
1943
1949
1949
1954
1956
1955
1970
1964
1969
1969
1956
1960
1960
1971
1960
1966
1981
1987
1996
1996
1992
2003
2046
2077
2086
2088
2078
2055
2054
2026
2008
2003
1985
1982
1973
1980
1972
1984
1985
1964
1966
1969
1956
1993
1997
1993
1998
2014
1996
1964
1949
1988
1932
1794
1673
1741
2072
2527
3174
4009
4095
4095
3619
1978
1058
1036
1007
1328
1469
1485
1621
1964
2092
2069
2061
2125
2174
2177
2165
2184
2204
2218
2244
2248
2264
2286
2300
2314
2341
2367
2396
2422
2453
2491
2523
2568
2601
2631
2661
2684
2699
2713
2731
2732
2720
2713
2678
2624
2552
2459
2358
2269
2194
2126
2061
2017
1970
1944
1926
1911
1905
1895
1889
1888
1880
1883
1887
1896
1905
1904
1893
1909
1910
1919
1926
1919
1919
1922
1932
1928
1929
1930
1928
1930
1929
1927
1934
1934
1943
1941
1932
1941
1934
1937
1934
1931
1926
1937
1929
1929
1919
1918
1928
1924
1922
1916
1912
1921
1912
1919
1917
1918
1928
1921
1917
1904
1930
1936
1934
1936
1930
1931
1971
2013
2007
2027
2017
1994
1980
1960
1937
1927
1916
1906
1892
1897
1904
1893
1886
1890
1876
1891
1908
1912
1916
1918
1914
1925
1915
1872
1849
1893
1826
1689
1565
1665
1987
2433
3096
3933
4095
4095
3566
1879
965
959
918
1233
1354
1341
1461
1829
1970
1944
1939
2016
2040
2044
2054
2039
2081
2097
2110
2128
2147
2178
2198
2209
2230
2259
2286
2303
2333
2362
2398
2445
2471
2503
2522
2566
2589
2603
2616
2614
2614
2607
2578
2523
2449
2370
2285
2192
2111
2034
1975
1920
1881
1843
1815
1804
1794
1782
1776
1768
1759
1764
1765
1770
1767
1773
1776
1781
1791
1796
1802
1811
1815
1837
1841
1839
1848
1842
1857
1864
1865
1864
1862
1874
1877
1866
1870
1869
1870
1876
1872
1865
1868
1875
1867
1864
1867
1875
1877
1878
1870
1866
1871
1885
1881
1882
1884
1888
1902
1928
1951
1967
1980
1970
1949
1935
1918
1897
1888
1873
1864
1857
1872
1861
1854
1865
1867
1866
1866
1884
1874
1892
1905
1903
1897
1868
1841
1890
1869
1728
1620
1623
1910
2292
2873
3672
4095
4095
3777
2394
1120
997
912
1140
1318
1337
1398
1688
1964
1992
1985
2045
2105
2102
2104
2115
2128
2138
2181
2198
2213
2234
2257
2277
2288
2316
2346
2366
2411
2449
2474
2526
2566
2593
2633
2660
2674
2689
2708
2698
2702
2691
2653
2606
2547
2461
2358
2269
2168
2098
2038
1977
1936
1897
1882
1858
1850
1847
1830
1845
1847
1845
1839
1853
1851
1856
1872
1867
1872
1876
1886
1877
1897
1896
1897
1909
1907
1910
1917
1920
1911
1908
1905
1894
1895
1891
1894
1875
1879
1874
1861
1878
1874
1882
1879
1881
1878
1878
1884
1883
1886
1877
1881
1876
1887
1882
1879
1878
1877
1884
1896
1910
1912
1917
1917
1921
1955
1997
2010
2030
2026
2005
2005
2000
1974
1959
1951
1929
1926
1933
1927
1928
1933
1934
1933
1940
1953
1952
1965
1961
1967
1967
1935
1899
1932
1939
1805
1661
1622
1873
2271
2847
3632
4095
4095
3928
2691
1201
1013
940
1135
1398
1423
1470
1770
2038
2054
2048
2078
2157
2170
2167
2166
2176
2197
2210
2215
2226
2234
2257
2278
2305
2336
2362
2390
2418
2462
2493
2530
2572
2609
2649
2676
2696
2705
2731
2739
2727
2726
2700
2672
2633
2563
2476
2388
2306
2228
2160
2099
2049
2007
1977
1965
1937
1919
1913
1910
1907
1918
1909
1902
1910
1917
1916
1915
1918
1919
1922
1937
1927
1927
1929
1937
1936
1940
1955
1943
1949
1946
1945
1936
1943
1944
1932
1942
1939
1943
1931
1932
1932
1921
1927
1931
1922
1924
1924
1922
1917
1918
1916
1921
1917
1913
1910
1908
1910
1915
1907
1901
1908
1909
1911
1919
1905
1914
1938
1937
1941
1941
1948
1952
1987
2018
2017
2028
2020
1992
1985
1971
1951
1940
1922
1920
1912
1909
1913
1924
1920
1925
1917
1922
1934
1949
1948
1950
1955
1936
1888
1891
1934
1836
1697
1568
1731
2108
2608
3314
4095
4095
4082
3315
1579
931
935
981
1321
1427
1443
1658
1974
2053
2010
1995
2083
2123
2115
2112
2115
2134
2150
2159
2164
2180
2195
2206
2223
2248
2277
2307
2332
2368
2398
2434
2482
2511
2546
2586
2598
2618
2636
2634
2633
2636
2617
2603
2571
2519
2443
2362
2274
2192
2113
2048
1993
1941
1907
1876
1856
1847
1844
1844
1837
1833
1834
1833
1842
1844
1841
1846
1834
1852
1853
1855
1849
1852
1845
1854
1862
1857
1861
1856
1858
1855
1853
1855
1862
1850
1839
1849
1839
1850
1859
1853
1848
1854
1861
1857
1854
1855
1855
1847
1845
1843
1832
1837
1835
1825
1827
1821
1831
1828
1817
1821
1821
1822
1827
1823
1813
1822
1827
1835
1813
1818
1832
1830
1839
1845
1842
1833
1854
1850
1855
1903
1930
1935
1919
1907
1887
1870
1859
1851
1826
1825
1830
1817
1815
1827
1838
1825
1827
1828
1835
1860
1872
1862
1875
1872
1852
1824
1848
1845
1706
1574
1544
1799
2186
2762
3582
4095
4095
3906
2603
1154
968
886
1080
1318
1329
1361
1659
1951
1976
1969
2018
2076
2082
2087
2088
2100
2117
2146
2154
2160
2186
2207
2228
2262
2279
2300
2324
2347
2386
2412
2447
2475
2500
2537
2567
2575
2596
2599
2606
2616
2597
2590
2567
2535
2484
2411
2326
2252
2171
2114
2039
1982
1944
1912
1887
1868
1853
1835
1841
1835
1843
1838
1844
1847
1842
1843
1851
1857
1858
1869
1869
1871
1873
1880
1884
1876
1888
1892
1894
1901
1905
1898
1887
1903
1901
1899
1909
1895
1898
1903
1907
1906
1898
1897
1902
1904
1895
1901
1889
1896
1894
1876
1885
1879
1890
1889
1880
1881
1887
1903
1906
1905
1900
1902
1918
1931
1934
1936
1943
1946
1982
2015
2033
2037
2027
2000
1988
1970
1952
1934
1919
1919
1914
1920
1920
1920
1925
1930
1930
1941
1952
1963
1966
1966
1983
1955
1932
1908
1955
1888
1761
1636
1712
2033
2457
3132
3958
4095
4095
3599
1966
1057
1030
972
1271
1401
1406
1517
1874
2049
2026
2036
2099
2129
2136
2149
2147
2159
2181
2190
2203
2216
2234
2244
2272
2292
2328
2350
2380
2413
2444
2486
2512
2541
2583
2608
2627
2643
2643
2653
2655
2647
2634
2614
2580
2538
2471
2394
2313
2237
2178
2099
2051
2003
1968
1944
1922
1901
1886
1889
1883
1871
1868
1875
1877
1882
1891
1890
1892
1905
1917
1909
1916
1930
1929
1926
1930
1933
1933
1933
1936
1933
1935
1941
1938
1925
1922
1929
1928
1917
1920
1910
1920
1931
1925
1919
1917
1922
1931
1928
1922
1917
1910
1916
1917
1909
1917
1921
1920
1918
1917
1919
1924
1928
1934
1931
1928
1930
1937
1929
1949
1958
1955
1952
1954
1964
1995
2031
2047
2044
2043
2022
2010
1984
1959
1946
1926
1922
1909
1908
1917
1916
1924
1925
1917
1926
1948
1943
1942
1955
1967
1951
1927
1889
1934
1902
1763
1604
1641
1975
2420
3057
3900
4095
4095
3705
2120
983
961
922
1227
1428
1428
1550
1894
2055
2027
1998
2060
2131
2133
2118
2111
2124
2139
2148
2142
2162
2186
2197
2220
2237
2257
2285
2317
2329
2361
2392
2437
2471
2509
2535
2546
2572
2589
2583
2577
2576
2557
2544
2537
2487
2437
2390
2309
2232
2161
2100
2045
2004
1960
1918
1901
1887
1877
1855
1852
1847
1855
1861
1859
1856
1856
1870
1871
1875
1881
1887
1892
1891
1899
1897
1907
1906
1906
1899
1907
1907
1905
1908
1908
1903
1906
1903
1899
1896
1894
1892
1890
1886
1890
1882
1883
1887
1880
1880
1882
1874
1879
1883
1878
1871
1873
1875
1876
1886
1874
1867
1880
1864
1871
1877
1862
1869
1868
1864
1864
1867
1868
1862
1880
1882
1889
1888
1890
1888
1911
1949
1959
1975
1967
1929
1911
1884
1861
1856
1842
1825
1808
1806
1815
1810
1818
1814
1808
1817
1833
1832
1833
1837
1849
1839
1804
1779
1830
1778
1631
1485
1523
1852
2290
2904
3738
4095
4095
3672
2092
934
875
823
1120
1314
1322
1422
1771
1940
1918
1902
1965
2033
2025
2015
2022
2044
2070
2087
2088
2102
2124
2151
2164
2190
2208
2230
2250
2267
2298
2327
2365
2392
2414
2434
2453
2468
2480
2482
2482
2470
2461
2437
2423
2397
2364
2303
2219
2149
2073
2023
1969
1931
1887
1855
1829
1807
1787
1782
1787
1779
1782
1785
1778
1789
1806
1806
1812
1816
1816
1811
1832
1828
1836
1840
1842
1847
1842
1846
1841
1850
1849
1848
1841
1848
1847
1842
1849
1837
1844
1846
1842
1845
1835
1843
1844
1857
1857
1851
1851
1843
1849
1858
1853
1844
1858
1846
1843
1854
1849
1850
1858
1861
1865
1875
1879
1874
1873
1909
1945
1966
1977
1966
1945
1936
1918
1893
1877
1869
1863
1858
1852
1851
1862
1861
1864
1869
1866
1889
1903
1910
1904
1916
1912
1876
1860
1910
1866
1739
1624
1622
1907
2278
2890
3724
4095
4095
3789
2317
1114
1028
928
1176
1342
1335
1396
1706
1979
1999
1996
2072
2122
2117
2127
2132
2133
2158
2192
2201
2204
2224
2244
2270
2290
2314
2342
2355
2377
2414
2426
2455
2489
2500
2526
2547
2556
2549
2554
2538
2529
2524
2500
2482
2433
2390
2320
2239
2181
2108
2048
1995
1948
1912
1886
1863
1851
1829
1817
1814
1802
1814
1817
1825
1828
1836
1846
1855
1853
1859
1858
1857
1878
1891
1883
1895
1894
1896
1907
1903
1889
1891
1892
1894
1888
1871
1872
1866
1871
1871
1856
1854
1850
1842
1848
1841
1848
1854
1851
1846
1842
1853
1844
1849
1839
1839
1844
1859
1872
1880
1885
1887
1891
1912
1951
1977
2002
2000
1983
1961
1951
1927
1903
1888
1878
1875
1876
1884
1871
1873
1878
1874
1865
1878
1888
1900
1908
1915
1911
1881
1852
1872
1895
1788
1648
1557
1741
2098
2600
3314
4095
4095
3959
3026
1369
946
896
998
1296
1357
1376
1614
1953
2013
1997
2019
2092
2109
2124
2111
2122
2143
2156
2177
2185
2204
2219
2242
2256
2292
2320
2333
2367
2399
2431
2470
2501
2522
2542
2572
2575
2576
2588
2577
2566
2566
2546
2520
2496
2457
2392
2336
2264
2196
2134
2086
2036
1999
1973
1944
1923
1898
1899
1889
1891
1901
1883
1892
1899
1905
1916
1931
1932
1934
1952
1947
1950
1955
1963
1961
1960
1969
1962
1966
1970
1961
1951
1958
1956
1954
1939
1946
1930
1934
1940
1932
1932
1931
1932
1933
1926
1925
1924
1914
1919
1917
1919
1919
1923
1922
1920
1918
1920
1924
1925
1931
1923
1935
1945
1953
1954
1950
1945
1981
2007
2036
2056
2053
2041
2013
1998
1967
1952
1951
1929
1918
1921
1919
1924
1932
1927
1923
1926
1939
1951
1965
1969
1967
1975
1968
1927
1917
1968
1896
1752
1617
1691
2041
2502
3149
3975
4095
4095
3596
1937
980
969
948
1283
1442
1451
1616
1950
2067
2045
2033
2091
2164
2153
2132
2143
2157
2182
2185
2190
2208
2228
2246
2260
2287
2310
2337
2363
2388
2415
2453
2484
2506
2531
2555
2578
2587
2582
2578
2561
2558
2547
2532
2500
2475
2414
2359
2286
2227
2170
2104
2058
2010
1978
1954
1927
1900
1896
1884
1886
1881
1885
1884
1886
1894
1884
1894
1898
1905
1907
1908
1896
1892
1902
1907
1906
1916
1907
1905
1905
1907
1894
1896
1901
1886
1883
1879
1875
1868
1879
1875
1864
1870
1876
1860
1860
1866
1864
1860
1871
1864
1857
1874
1864
1856
1849
1861
1859
1862
1863
1853
1855
1864
1864
1856
1863
1864
1868
1865
1858
1868
1891
1901
1902
1891
1896
1927
1967
1988
1985
1981
1958
1953
1924
1909
1887
1879
1876
1868
1871
1872
1893
1886
1886
1881
1888
1899
1921
1926
1914
1936
1933
1905
1870
1906
1915
1782
1649
1573
1813
2182
2721
3497
4095
4095
4056
2929
1339
1036
951
1103
1375
1404
1416
1674
2002
2046
2029
2059
2135
2141
2147
2149
2155
2175
2210
2233
2233
2258
2280
2293
2311
2321
2337
2359
2391
2413
2428
2450
2486
2511
2545
2551
2547
2556
2565
2555
2538
2525
2502
2475
2462
2425
2356
2313
2247
2171
2122
2075
2024
1981
1960
1921
1890
1882
1878
1867
1868
1874
1858
1873
1882
1885
1904
1909
1908
1923
1927
1927
1942
1928
1941
1942
1947
1954
1952
1950
1953
1949
1943
1946
1944
1944
1943
1933
1926
1920
1920
1919
1918
1910
1910
1913
1910
1910
1909
1911
1909
1910
1912
1895
1909
1921
1927
1933
1929
1918
1936
1978
2001
2024
2028
1998
1983
1977
1955
1943
1923
1915
1886
1891
1897
1894
1905
1899
1900
1888
1913
1928
1932
1935
1929
1937
1941
1913
1888
1909
1918
1801
1680
1620
1836
2186
2707
3480
4095
4095
3964
2830
1318
1054
943
1083
1325
1339
1364
1614
1945
2030
2024
2069
2131
2132
2155
2155
2160
2176
2214
2230
2245
2248
2262
2285
2310
2334
2359
2383
2412
2438
2472
2488
2510
2536
2558
2571
2575
2572
2560
2557
2540
2525
2502
2474
2444
2381
2318
2255
2188
2130
2076
2026
1984
1958
1934
1896
1885
1869
1868
1870
1863
1864
1877
1888
1906
1921
1922
1930
1931
1937
1949
1959
1971
1973
1988
1986
1996
2001
2006
2004
1994
1995
1988
1980
1984
1978
1961
1965
1962
1951
1947
1948
1939
1932
1937
1925
1918
1924
1917
1908
1910
1900
1898
1895
1900
1899
1897
1900
1906
1913
1929
1927
1933
1946
1979
2016
2030
2041
2032
1998
1994
1968
1943
1944
1935
1922
1926
1928
1924
1939
1940
1933
1933
1931
1945
1955
1971
1972
1984
1990
1963
1927
1932
1981
1869
1727
1618
1791
2184
2685
3411
4095
4095
4063
3193
1488
976
967
1034
1371
1453
1480
1727
2040
2081
2058
2060
2136
2174
2169
2157
2155
2178
2188
2202
2216
2243
2246
2260
2275
2298
2332
2351
2382
2399
2447
2464
2501
2529
2535
2567
2571
2569
2566
2567
2551
2543
2518
2486
2461
2419
2357
2303
2233
2175
2122
2074
2019
1979
1954
1930
1904
1892
1895
1884
1881
1892
1876
1878
1892
1890
1894
1906
1909
1904
1912
1930
1920
1936
1945
1929
1932
1932
1931
1940
1950
1947
1931
1940
1937
1937
1931
1930
1915
1909
1921
1911
1912
1920
1909
1901
1908
1901
1904
1904
1898
1899
1893
1897
1888
1885
1891
1884
1886
1896
1872
1881
1880
1893
1907
1903
1911
1896
1924
1976
1986
1997
1999
1968
1951
1939
1914
1892
1878
1871
1851
1858
1857
1860
1864
1857
1855
1854
1860
1871
1879
1893
1894
1911
1914
1877
1841
1871
1887
1750
1600
1554
1805
2195
2751
3521
4095
4095
3992
2788
1191
945
882
1063
1349
1388
1424
1729
1995
2007
1980
2003
2102
2102
2095
2089
2115
2139
2166
2173
2176
2206
2228
2244
2264
2285
2312
2343
2363
2386
2424
2451
2469
2499
2503
2521
2543
2545
2545
2545
2531
2526
2519
2476
2453
2401
2339
2271
2211
2146
2098
2052
2005
1961
1926
1900
1881
1873
1853
1852
1841
1830
1827
1835
1831
1843
1857
1862
1858
1870
1868
1862
1880
1888
1893
1897
1900
1889
1898
1902
1901
1896
1898
1893
1892
1894
1890
1887
1889
1880
1882
1890
1881
1886
1883
1871
1877
1893
1890
1883
1885
1875
1879
1899
1903
1892
1889
1893
1896
1899
1901
1912
1913
1920
1929
1918
1933
1979
2014
2027
2026
2012
2001
1985
1966
1945
1932
1930
1920
1917
1909
1908
1922
1917
1923
1929
1939
1938
1961
1962
1952
1975
1999
1962
1936
1939
1959
1906
1782
1658
1743
2064
2492
3161
3989
4095
4095
3574
1984
1138
1085
1036
1307
1395
1397
1502
1842
2052
2071
2089
2174
2195
2179
2198
2211
2215
2243
2271
2267
2293
2309
2332
2358
2371
2389
2407
2433
2450
2474
2503
2524
2539
2569
2577
2583
2593
2585
2573
2559
2546
2521
2494
2461
2405
2352
2287
2217
2154
2088
2036
1988
1941
1910
1887
1867
1846
1843
1818
1817
1820
1812
1812
1817
1829
1832
1840
1850
1848
1856
1883
1892
1898
1908
1913
1923
1932
1938
1929
1935
1946
1943
1936
1928
1928
1927
1925
1929
1914
1924
1922
1905
1910
1894
1906
1918
1902
1899
1898
1901
1885
1901
1911
1905
1929
1932
1920
1953
1996
2025
2025
2032
2009
1991
1991
1968
1950
1939
1936
1931
1926
1937
1930
1939
1940
1932
1948
1942
1959
1971
1982
1985
2000
2005
1965
1953
1960
1985
1877
1755
1682
1888
2252
2771
3508
4095
4095
4033
3019
1442
1076
1015
1134
1403
1437
1460
1697
2025
2108
2095
2134
2212
2230
2241
2234
2236
2255
2278
2287
2298
2304
2331
2345
2375
2391
2421
2444
2470
2504
2544
2572
2607
2636
2649
2665
2673
2675
2661
2654
2641
2625
2603
2568
2508
2445
2387
2320
2254
2177
2125
2067
2026
1995
1962
1934
1922
1903
1889
1875
1874
1874
1863
1862
1861
1865
1874
1888
1886
1898
1907
1922
1926
1923
1942
1931
1938
1944
1947
1943
1942
1940
1937
1931
1934
1921
1913
1923
1911
1912
1913
1905
1903
1907
1915
1913
1919
1914
1918
1910
1920
1910
1916
1913
1919
1913
1919
1915
1913
1924
1919
1918
1925
1936
1939
1958
1956
1960
1960
1987
2020
2037
2057
2049
2024
2016
2001
1967
1963
1946
1937
1925
1925
1920
1931
1932
1930
1925
1918
1926
1934
1955
1955
1952
1965
1967
1941
1895
1909
1945
1838
1684
1577
1786
2209
2745
3485
4095
4095
4046
3094
1387
943
934
1052
1385
1455
1501
1752
2030
2063
2015
2017
2111
2149
2142
2124
2144
2161
2174
2183
2190
2200
2220
2241
2263
2289
2310
2333
2363
2397
2424
2453
2488
2519
2542
2569
2577
2573
2575
2572
2551
2553
2528
2488
2448
2401
2331
2264
2198
2132
2076
2029
1987
1934
1916
1895
1873
1866
1845
1840
1840
1834
1829
1823
1830
1837
1835
1830
1829
1830
1842
1851
1845
1844
1844
1847
1855
1864
1868
1861
1864
1860
1859
1870
1868
1868
1873
1866
1860
1868
1862
1867
1866
1864
1844
1854
1850
1842
1858
1843
1842
1828
1841
1844
1841
1846
1838
1819
1833
1846
1838
1850
1845
1840
1835
1846
1853
1857
1856
1866
1869
1857
1882
1875
1880
1893
1890
1889
1920
1957
1977
1996
1988
1966
1956
1936
1918
1912
1894
1886
1882
1885
1884
1896
1903
1893
1900
1909
1906
1920
1934
1932
1933
1949
1961
1936
1902
1906
1947
1844
1724
1607
1758
2135
2626
3341
4095
4095
4095
3390
1687
1044
1003
1036
1340
1406
1406
1562
1926
2051
2039
2052
2126
2160
2153
2169
2168
2173
2210
2235
2245
2259
2280
2300
2318
2344
2367
2382
2412
2445
2470
2495
2514
2531
2554
2555
2561
2566
2564
2550
2535
2516
2494
2465
2436
2373
2303
2247
2177
2109
2046
1993
1942
1912
1877
1851
1837
1814
1816
1798
1788
1788
1788
1790
1788
1789
1793
1808
1811
1822
1828
1829
1841
1850
1850
1856
1862
1864
1874
1887
1877
1878
1886
1872
1873
1873
1869
1860
1862
1862
1861
1863
1869
1853
1849
1845
1848
1848
1850
1853
1842
1854
1848
1856
1855
1851
1860
1859
1867
1873
1871
1862
1898
1926
1957
1968
1961
1928
1912
1908
1886
1871
1863
1851
1838
1860
1863
1852
1858
1855
1838
1858
1859
1860
1885
1885
1897
1899
1919
1895
1858
1876
1911
1797
1687
1600
1741
2098
2559
3287
4055
4095
3989
3138
1547
1016
961
998
1271
1322
1334
1499
1852
1997
2007
2033
2113
2120
2115
2136
2140
2150
2187
2212
2215
2228
2258
2271
2296
2326
2349
2365
2412
2435
2461
2512
2540
2562
2593
2612
2610
2618
2617
2602
2594
2579
2544
2513
2472
2410
2342
2269
2200
2134
2084
2028
1983
1944
1919
1900
1887
1880
1865
1860
1859
1863
1861
1870
1873
1868
1885
1884
1906
1922
1933
1943
1951
1967
1982
1985
1997
1992
2000
2009
2013
2013
2008
2009
1996
1994
1990
1995
1980
1979
1978
1955
1978
1970
1971
1981
1970
1957
1953
1956
1940
1942
1931
1914
1922
1923
1921
1911
1914
1911
1905
1921
1920
1926
1939
1937
1949
1969
2003
2025
2029
2027
2009
1985
1980
1952
1942
1928
1917
1911
1903
1907
1916
1916
1910
1910
1907
1907
1933
1944
1944
1943
1957
1964
1944
1903
1909
1936
1841
1680
1591
1809
2218
2770
3507
4095
4095
3981
2990
1319
925
914
1032
1368
1428
1467
1730
2015
2052
2006
2026
2093
2138
2120
2107
2125
2140
2159
2160
2178
2185
2208
2229
2247
2270
2294
2319
2342
2381
2413
2448
2492
2520
2547
2568
2575
2586
2582
2572
2569
2555
2539
2508
2457
2413
2333
2264
2197
2131
2074
2030
1982
1943
1916
1898
1883
1876
1874
1867
1865
1864
1865
1862
1865
1868
1863
1870
1879
1883
1894
1901
1898
1907
1914
1917
1924
1922
1916
1925
1926
1928
1935
1929
1933
1935
1921
1926
1916
1920
1923
1914
1913
1912
1916
1914
1912
1910
1901
1905
1905
1907
1897
1893
1889
1883
1889
1896
1897
1888
1889
1890
1888
1893
1897
1906
1907
1910
1919
1916
1943
1987
1995
2010
2003
1979
1967
1954
1938
1919
1897
1884
1878
1883
1883
1881
1882
1877
1879
1889
1891
1900
1918
1921
1915
1924
1940
1913
1877
1884
1917
1822
1668
1544
1727
2106
2610
3321
4095
4095
4095
3311
1543
926
919
975
1322
1426
1434
1643
1959
2012
1974
1975
2063
2096
2074
2069
2078
2097
2134
2140
2145
2168
2197
2207
2228
2266
2285
2309
2349
2367
2393
2433
2460
2494
2533
2559
2566
2580
2587
2568
2570
2558
2528
2516
2477
2416
2346
2279
2207
2149
2089
2034
1992
1952
1928
1905
1880
1857
1840
1820
1817
1814
1820
1814
1805
1816
1815
1825
1836
1833
1835
1853
1857
1861
1875
1877
1883
1899
1896
1895
1906
1903
1902
1904
1910
1901
1917
1907
1899
1906
1903
1905
1905
1913
1911
1919
1913
1907
1910
1905
1915
1912
1917
1925
1914
1918
1931
1922
1926
1944
1932
1940
1952
1942
1959
1991
2024
2033
2046
2027
1990
1988
1953
1940
1938
1918
1908
1909
1911
1917
1931
1923
1918
1924
1913
1922
1932
1936
1951
1958
1970
1971
1952
1912
1946
1951
1818
1703
1666
1891
2253
2798
3580
4095
4095
3952
2783
1348
1085
972
1104
1328
1333
1360
1604
1922
2020
2034
2085
2146
2142
2145
2152
2162
2183
2212
2229
2237
2261
2285
2312
2330
2341
2375
2391
2427
2452
2471
2502
2525
2535
2544
2552
2566
2570
2562
2553
2517
2494
2475
2437
2378
2317
2248
2164
2099
2043
1974
1933
1895
1855
1821
1804
1790
1784
1777
1761
1755
1752
1754
1758
1751
1754
1755
1765
1776
1784
1801
1802
1808
1818
1814
1829
1848
1850
1857
1860
1844
1846
1855
1858
1842
1846
1839
1825
1838
1827
1813
1810
1814
1823
1813
1823
1830
1817
1817
1821
1806
1835
1879
1900
1912
1912
1890
1865
1853
1832
1810
1804
1793
1778
1780
1776
1789
1790
1793
1791
1786
1797
1795
1813
1817
1819
1829
1844
1818
1801
1792
1832
1772
1648
1532
1593
1909
2314
2957
3750
4095
3965
3429
1923
994
926
854
1112
1229
1237
1335
1673
1907
1939
1962
2037
2060
2059
2074
2081
2099
2129
2156
2160
2178
2196
2225
2263
2283
2323
2352
2383
2417
2463
2494
2534
2587
2590
2614
2633
2624
2629
2625
2603
2576
2558
2520
2466
2395
2327
2250
2184
2132
2065
2012
1965
1936
1913
1892
1877
1857
1847
1838
1841
1832
1846
1840
1847
1862
1864
1874
1878
1886
1884
1905
1918
1913
1938
1937
1938
1945
1934
1925
1931
1938
1937
1942
1928
1924
1916
1916
1915
1900
1906
1908
1901
1905
1921
1906
1916
1920
1910
1900
1917
1914
1908
1910
1896
1896
1916
1960
1977
1991
1995
1965
1952
1946
1919
1911
1895
1876
1874
1882
1893
1893
1897
1889
1894
1894
1907
1908
1917
1933
1932
1933
1950
1931
1894
1882
1927
1868
1731
1589
1678
2049
2543
3196
4009
4095
4046
3463
1826
898
908
906
1246
1424
1431
1619
1946
2053
2040
2015
2081
2145
2147
2136
2141
2160
2182
2175
2184
2201
2215
2235
2249
2273
2296
2320
2349
2376
2417
2442
2476
2508
2525
2549
2569
2578
2574
2565
2559
2534
2528
2501
2445
2382
2322
2236
2176
2118
2041
2003
1951
1921
1897
1878
1861
1847
1847
1836
1835
1833
1836
1832
1837
1835
1842
1837
1854
1854
1853
1864
1861
1861
1869
1874
1874
1890
1886
1890
1891
1889
1894
1890
1894
1884
1883
1887
1881
1881
1882
1871
1875
1872
1871
1865
1864
1868
1863
1865
1865
1865
1855
1861
1857
1849
1877
1883
1883
1886
1891
1896
1921
1958
1975
1980
1977
1949
1934
1909
1900
1880
1863
1857
1840
1853
1856
1850
1865
1864
1867
1872
1868
1883
1889
1895
1906
1901
1924
1907
1864
1857
1906
1827
1673
1552
1703
2090
2585
3263
4078
4095
4095
3416
1671
912
915
949
1329
1443
1462
1668
1980
2051
2024
2006
2078
2133
2115
2101
2112
2147
2158
2162
2173
2175
2194
2203
2227
2258
2279
2299
2327
2351
2384
2425
2442
2478
2503
2520
2530
2530
2537
2532
2514
2506
2484
2451
2423
2354
2283
2208
2145
2073
2006
1961
1902
1874
1853
1826
1802
1787
1772
1774
1773
1770
1772
1761
1777
1772
1776
1788
1789
1784
1783
1793
1786
1802
1816
1819
1819
1817
1817
1802
1811
1826
1823
1825
1838
1833
1827
1837
1829
1828
1832
1827
1820
1823
1823
1828
1829
1834
1841
1839
1847
1840
1836
1852
1855
1862
1872
1867
1864
1874
1910
1940
1959
1984
1962
1935
1940
1898
1882
1890
1865
1848
1839
1834
1842
1859
1872
1871
1869
1873
1869
1881
1891
1902
1905
1912
1928
1903
1881
1898
1911
1819
1698
1615
1802
2136
2621
3367
4095
4095
3986
3080
1501
1032
960
1005
1275
1320
1335
1516
1868
2002
2014
2051
2115
2117
2121
2141
2151
2168
2198
2218
2234
2253
2275
2301
2321
2348
2374
2397
2437
2461
2492
2521
2547
2573
2594
2612
2607
2605
2597
2594
2576
2553
2530
2484
2437
2363
2294
2209
2151
2093
2031
1991
1938
1918
1891
1883
1871
1852
1856
1847
1840
1843
1828
1844
1850
1856
1864
1858
1870
1877
1884
1893
1892
1898
1907
1911
1914
1913
1918
1919
1923
1927
1924
1919
1917
1911
1908
1904
1902
1901
1884
1885
1884
1891
1884
1889
1880
1890
1945
1962
1978
1978
1941
1924
1906
1874
1868
1848
1843
1839
1833
1839
1844
1843
1848
1857
1858
1870
1865
1874
1875
1891
1893
1901
1893
1855
1846
1895
1829
1687
1570
1615
1926
2335
2969
3775
4095
4061
3567
2060
1046
973
896
1163
1300
1302
1400
1748
1983
1999
2004
2054
2095
2107
2111
2114
2133
2149
2176
2197
2199
2222
2245
2263
2274
2313
2347
2374
2414
2449
2487
2514
2552
2575
2579
2607
2615
2596
2599
2582
2559
2545
2512
2448
2385
2315
2233
2171
2108
2058
2003
1970
1935
1906
1898
1889
1863
1860
1861
1857
1857
1865
1864
1861
1888
1892
1896
1906
1912
1909
1916
1943
1942
1952
1959
1952
1955
1957
1960
1957
1948
1959
1946
1945
1942
1919
1914
1917
1915
1913
1919
1908
1902
1909
1905
1905
1896
1897
1906
1897
1903
1900
1891
1930
1960
1969
1986
1972
1941
1942
1917
1901
1881
1868
1851
1852
1863
1865
1867
1860
1868
1866
1868
1879
1878
1893
1903
1899
1900
1915
1889
1858
1855
1884
1805
1658
1534
1689
2087
2592
3288
4091
4095
3972
3205
1506
848
856
904
1248
1371
1394
1621
1935
1994
1971
1954
2030
2081
2076
2063
2079
2091
2113
2112
2129
2147
2164
2185
2194
2227
2257
2275
2311
2340
2373
2415
2446
2471
2486
2506
2509
2509
2510
2496
2489
2485
2462
2419
2376
2308
2241
2180
2110
2047
1999
1957
1922
1884
1865
1846
1832
1832
1823
1812
1817
1824
1822
1823
1834
1833
1840
1859
1867
1865
1876
1883
1874
1886
1891
1879
1884
1895
1892
1895
1904
1894
1901
1899
1896
1887
1882
1887
1876
1881
1885
1869
1882
1882
1882
1885
1879
1877
1879
1881
1874
1869
1865
1876
1874
1885
1895
1884
1900
1901
1898
1894
1905
1910
1941
1973
1982
1987
1971
1949
1932
1906
1885
1856
1846
1844
1834
1834
1833
1825
1829
1838
1835
1829
1833
1846
1858
1866
1865
1878
1880
1850
1806
1830
1842
1707
1566
1514
1783
2180
2742
3507
4095
4095
3929
2728
1146
911
841
1039
1335
1358
1407
1700
1979
1984
1964
1979
2057
2070
2062
2066
2085
2105
2141
2137
2163
2195
2210
2230
2255
2268
2296
2331
2366
2402
2436
2471
2494
2531
2552
2568
2575
2580
2578
2563
2555
2522
2507
2474
2424
2361
2308
2231
2168
2107
2029
1979
1941
1908
1885
1860
1850
1843
1822
1828
1820
1813
1829
1823
1834
1847
1856
1865
1871
1863
1870
1887
1888
1904
1910
1905
1906
1909
1913
1909
1917
1921
1914
1920
1918
1916
1922
1927
1923
1922
1926
1927
1927
1930
1934
1925
1933
1934
1937
1946
1952
1944
1950
1942
1949
1954
1965
1979
1977
1992
1996
1995
2040
2074
2073
2094
2080
2046
2045
2023
2001
1991
1970
1964
1961
1956
1977
1970
1969
1966
1959
1963
1958
1975
1992
1993
2003
2005
2008
1979
1956
1962
1987
1893
1773
1671
1809
2135
2583
3305
4085
4095
4055
3266
1664
1115
1052
1055
1337
1379
1393
1540
1887
2038
2048
2090
2160
2167
2172
2179
2182
2208
2232
2262
2275
2286
2313
2340
2372
2397
2429
2460
2489
2519
2557
2583
2612
2631
2649
2657
2669
2662
2647
2634
2618
2594
2565
2541
2483
2433
2364
2291
2225
2180
2126
2078
2056
2011
1987
1971
1945
1932
1932
1934
1934
1937
1952
1938
1952
1959
1957
1968
1971
1973
1973
1994
1989
1990
1993
1984
1988
1999
1993
1986
1980
1975
1961
1961
1959
1947
1951
1954
1949
1940
1953
1943
1942
1942
1937
1938
1940
1941
1935
1930
1935
1933
1940
1953
1943
1944
1952
1949
1982
2021
2034
2048
2051
2030
2019
2006
1989
1973
1966
1958
1948
1952
1960
1972
1965
1968
1964
1968
1970
1979
1985
1990
1997
1997
2012
1987
1945
1938
1982
1902
1785
1661
1746
2079
2517
3163
3947
4095
4055
3466
1866
1030
1000
976
1278
1401
1418
1540
1901
2052
2036
2053
2113
2155
2153
2150
2154
2168
2186
2198
2193
2201
2222
2237
2260
2288
2305
2336
2372
2393
2430
2459
2480
2509
2534
2542
2554
2551
2537
2526
2506
2486
2465
2430
2387
2330
2268
2215
2142
2088
2041
1986
1949
1934
1888
1880
1867
1845
1855
1846
1849
1841
1847
1851
1852
1862
1867
1860
1877
1893
1886
1899
1904
1899
1907
1923
1918
1924
1928
1915
1900
1903
1902
1897
1891
1886
1874
1866
1886
1874
1870
1868
1864
1855
1859
1865
1855
1872
1868
1862
1864
1868
1856
1860
1865
1874
1879
1879
1887
1883
1930
1965
1963
1975
1970
1938
1940
1909
1875
1861
1850
1847
1837
1851
1846
1851
1856
1855
1850
1860
1869
1882
1891
1908
1892
1909
1916
1873
1841
1876
1887
1755
1609
1553
1830
2244
2804
3566
4095
4095
3852
2627
1106
900
850
1069
1372
1407
1491
1796
2017
2023
1974
1985
2075
2095
2082
2071
2089
2106
2132
2142
2154
2163
2186
2204
2225
2251
2271
2294
2324
2354
2379
2418
2449
2477
2492
2505
2499
2511
2502
2487
2487
2465
2443
2406
2362
2295
2235
2168
2102
2051
2001
1961
1919
1893
1870
1855
1851
1829
1831
1831
1820
1830
1836
1845
1855
1861
1865
1863
1872
1884
1889
1894
1892
1899
1896
1901
1898
1897
1901
1893
1916
1904
1897
1904
1882
1899
1893
1895
1898
1893
1897
1900
1900
1900
1907
1908
1922
1922
1922
1924
1932
1933
1936
1947
1947
1956
1950
1958
1961
1997
2052
2056
2069
2061
2029
2022
2008
1988
1970
1973
1961
1957
1965
1961
1960
1966
1971
1955
1972
1982
1997
2009
2027
2020
2035
2037
1995
1975
2025
1992
1867
1761
1774
2053
2438
3036
3815
4095
4095
3809
2367
1191
1095
1000
1256
1439
1434
1493
1816
2060
2093
2091
2154
2200
2216
2225
2221
2234
2244
2282
2295
2301
2321
2352
2374
2403
2436
2475
2493
2547
2585
2605
2636
2653
2664
2678
2690
2684
2658
2638
2621
2592
2579
2548
2494
2434
2375
2298
2240
2189
2112
2078
2042
1998
1983
1968
1938
1929
1922
1918
1910
1913
1918
1920
1922
1933
1942
1943
1956
1958
1955
1958
1968
1968
1975
1971
1964
1975
1974
1971
1967
1961
1958
1955
1958
1949
1929
1936
1926
1924
1930
1919
1924
1933
1929
1931
1928
1921
1952
1988
2011
2036
2026
1995
1979
1959
1938
1922
1907
1884
1883
1887
1883
1892
1889
1888
1892
1891
1882
1908
1907
1918
1923
1927
1932
1898
1885
1899
1912
1802
1690
1617
1787
2124
2586
3310
4027
4095
3880
2965
1466
1073
977
1023
1275
1303
1334
1530
1871
2011
2035
2072
2146
2140
2154
2168
2177
2195
2236
2261
2281
2306
2338
2371
2394
2422
2436
2476
2506
2531
2563
2600
2618
2647
2665
2664
2661
2653
2641
2625
2607
2583
2543
2501
2440
2366
2297
2228
2166
2114
2070
2012
1984
1956
1936
1928
1920
1912
1893
1899
1890
1889
1891
1900
1897
1904
1917
1914
1920
1925
1940
1947
1947
1964
1963
1965
1983
1982
1974
1979
1974
1967
1966
1956
1964
1960
1953
1951
1937
1933
1968
1997
2009
2014
1997
1967
1941
1926
1899
1887
1862
1849
1835
1836
1842
1837
1826
1827
1831
1830
1838
1848
1855
1858
1866
1868
1866
1838
1820
1856
1847
1722
1593
1562
1803
2167
2716
3499
4095
4069
3740
2480
1116
940
845
1027
1240
1270
1306
1596
1897
1929
1935
1986
2042
2050
2074
2076
2080
2096
2123
2139
2151
2176
2191
2214
2248
2272
2307
2346
2390
2422
2464
2500
2525
2566
2587
2596
2596
2593
2584
2573
2559
2525
2487
2436
2371
2295
2229
2165
2105
2055
2003
1958
1924
1922
1900
1883
1878
1864
1860
1870
1867
1860
1869
1875
1878
1891
1901
1918
1921
1928
1927
1931
1947
1952
1962
1953
1950
1946
1944
1942
1935
1934
1927
1925
1915
1919
1914
1910
1905
1901
1910
1923
1931
1925
1922
1942
1975
1998
2015
2000
1954
1936
1897
1871
1870
1847
1831
1830
1837
1839
1845
1855
1845
1858
1870
1864
1872
1881
1887
1886
1893
1908
1876
1846
1860
1888
1795
1656
1552
1745
2159
2686
3403
4095
4095
3919
3021
1355
875
869
957
1287
1375
1415
1667
1978
2018
1994
1988
2081
2113
2108
2108
2126
2146
2177
2176
2180
2202
2221
2234
2245
2285
2294
2319
2360
2381
2420
2455
2483
2496
2522
2538
2540
2547
2539
2519
2510
2492
2452
2415
2343
2280
2215
2148
2091
2021
1990
1943
1907
1890
1867
1850
1849
1845
1839
1843
1845
1850
1850
1859
1859
1863
1860
1881
1893
1894
1913
1906
1906
1919
1920
1915
1920
1922
1925
1927
1932
1919
1927
1927
1929
1926
1928
1923
1918
1924
1917
1912
1919
1912
1905
1908
1912
1920
1914
1912
1902
1898
1919
1923
1919
1932
1926
1937
1973
1998
2006
2023
2009
1974
1971
1945
1926
1907
1905
1880
1878
1893
1883
1888
1892
1900
1883
1901
1887
1901
1930
1927
1933
1929
1950
1928
1892
1883
1924
1848
1701
1576
1721
2098
2591
3283
4095
4095
4077
3352
1611
929
935
968
1335
1445
1450
1663
1983
2049
2011
2002
2084
2114
2119
2095
2098
2133
2164
2162
2175
2194
2198
2218
2231
2245
2261
2297
2325
2354
2378
2408
2423
2452
2475
2484
2489
2486
2478
2464
2452
2425
2407
2372
2329
2276
2210
2133
2078
2016
1958
1918
1878
1844
1818
1811
1796
1778
1774
1757
1752
1766
1771
1764
1758
1764
1767
1785
1806
1799
1793
1786
1777
1777
1783
1782
1775
1771
1774
1770
1779
1778
1769
1771
1765
1769
1767
1765
1761
1764
1765
1764
1763
1760
1761
1766
1772
1769
1761
1761
1761
1756
1764
1771
1767
1772
1775
1772
1781
1790
1789
1798
1811
1820
1828
1839
1843
1862
1913
1934
1947
1951
1929
1908
1890
1879
1860
1855
1851
1837
1827
1844
1846
1840
1847
1835
1839
1845
1862
1865
1872
1895
1890
1911
1910
1867
1842
1903
1873
1740
1628
1629
1906
2303
2913
3736
4095
4095
3800
2359
1147
1055
961
1195
1371
1358
1418
1727
1976
1998
2007
2065
2108
2104
2112
2129
2141
2160
2195
2215
2222
2248
2270
2289
2316
2332
2358
2377
2401
2441
2463
2482
2514
2524
2536
2551
2549
2540
2527
2512
2506
2495
2452
2405
2347
2283
2231
2160
2106
2045
2001
1967
1932
1899
1881
1871
1844
1847
1841
1841
1839
1840
1840
1844
1851
1869
1865
1861
1888
1880
1898
1912
1904
1919
1932
1938
1943
1944
1952
1959
1960
1961
1941
1934
1946
1951
1943
1956
1946
1932
1942
1933
1931
1939
1943
1935
1945
1946
1947
1953
1949
1941
1949
1947
1950
1961
1956
1951
1957
1972
2007
2031
2048
2047
2016
2014
1993
1966
1959
1937
1924
1926
1919
1922
1921
1914
1924
1929
1928
1934
1921
1934
1947
1948
1956
1973
1965
1937
1916
1944
1926
1802
1697
1682
1922
2285
2861
3638
4095
4095
3744
2473
1254
1111
1005
1175
1342
1364
1402
1663
1953
2025
2047
2115
2168
2153
2170
2193
2194
2206
2250
2266
2283
2303
2327
2347
2367
2402
2423
2441
2471
2491
2521
2553
2579
2586
2600
2611
2603
2596
2590
2576
2556
2532
2489
2442
2387
2321
2242
2163
2105
2058
2024
1988
1945
1922
1907
1886
1878
1868
1862
1858
1872
1863
1855
1873
1871
1870
1875
1880
1876
1896
1906
1915
1930
1929
1936
1944
1950
1949
1943
1942
1947
1943
1945
1931
1933
1946
1927
1921
1903
1907
1911
1910
1913
1889
1893
1902
1889
1887
1905
1900
1897
1897
1891
1892
1890
1911
1906
1905
1908
1906
1897
1919
1959
1973
1990
1998
1975
1955
1951
1922
1902
1892
1879
1874
1875
1878
1882
1887
1894
1886
1882
1895
1909
1920
1932
1921
1930
1947
1917
1888
1901
1920
1809
1697
1614
1786
2152
2653
3386
4095
4095
3900
2951
1430
1028
953
1029
1285
1308
1338
1535
1866
1990
1986
2016
2077
2084
2090
2096
2105
2114
2142
2160
2172
2173
2202
2231
2246
2289
2312
2343
2378
2423
2455
2488
2533
2556
2584
2605
2614
2613
2626
2615
2598
2575
2550
2513
2459
2396
2306
2231
2167
2114
2061
2015
1985
1949
1930
1914
1901
1894
1895
1887
1871
1874
1874
1873
1883
1880
1883
1902
1909
1918
1931
1929
1928
1935
1935
1941
1946
1950
1943
1947
1936
1937
1930
1925
1932
1917
1911
1899
1895
1891
1903
1898
1899
1897
1893
1890
1886
1891
1890
1890
1883
1879
1883
1885
1885
1890
1888
1893
1897
1903
1903
1908
1926
1928
1926
1934
1945
1959
1964
1967
1966
1975
2019
2040
2051
2059
2045
2015
2015
1985
1959
1952
1932
1924
1924
1934
1931
1938
1935
1939
1931
1942
1968
1972
1986
1986
1980
2001
1982
1940
1929
1970
1896
1763
1637
1759
2134
2611
3285
4079
4095
4033
3361
1702
976
976
996
1320
1442
1450
1619
1957
2059
2036
2034
2110
2147
2142
2124
2128
2160
2176
2200
2203
2210
2242
2259
2275
2295
2334
2350
2378
2415
2435
2468
2505
2533
2543
2572
2583
2581
2590
2584
2567
2552
2535
2498
2448
2399
2321
2248
2194
2129
2075
2034
1992
1956
1931
1924
1898
1893
1897
1883
1890
1894
1896
1889
1891
1896
1897
1904
1919
1916
1925
1942
1938
1942
1953
1958
1964
1964
1963
1957
1966
1975
1963
1964
1964
1970
1971
1974
1970
1967
1967
1967
1958
1954
1955
1953
1949
1943
1955
1953
1955
1958
1949
1948
1955
1951
1940
1944
1939
1941
1944
1936
1944
1947
1959
1956
1953
1947
1946
1952
1948
1964
1973
1982
1982
1979
1990
2022
2060
2080
2083
2064
2048
2046
2023
2007
1991
1967
1967
1967
1967
1967
1965
1968
1965
1967
1971
1963
1976
1978
1975
1984
2000
1996
1961
1930
1961
1952
1813
1646
1641
1944
2391
2992
3804
4095
4095
3846
2427
1102
1008
969
1216
1456
1470
1545
1875
2088
2055
2033
2083
2156
2168
2159
2154
2162
2201
2216
2207
2234
2249
2267
2283
2303
2324
2354
2387
2410
2438
2467
2507
2537
2565
2576
2584
2594
2598
2594
2579
2571
2540
2517
2485
2430
2371
2310
2228
2157
2107
2048
2011
1980
1956
1935
1919
1915
1892
1889
1894
1882
1887
1898
1897
1895
1909
1913
1914
1924
1926
1926
1930
1938
1938
1941
1939
1944
1945
1947
1953
1952
1950
1953
1953
1951
1947
1943
1945
1940
1942
1935
1939
1941
1936
1937
1927
1916
1928
1923
1928
1930
1923
1930
1921
1925
1919
1907
1913
1913
1917
1920
1918
1921
1914
1921
1922
1922
1928
1929
1920
1915
1920
1925
1934
1928
1934
1942
1951
1957
1952
1959
1975
2010
2016
2024
2014
1989
1994
1964
1944
1947
1921
1928
1934
1923
1933
1935
1931
1934
1943
1940
1954
1962
1967
1964
1984
1985
1942
1920
1963
1946
1805
1659
1636
1930
2342
2948
3752
4095
4095
3883
2493
1146
1047
970
1228
1445
1438
1480
1783
2015
2009
1993
2012
2085
2082
2077
2070
2077
2097
2118
2135
2146
2148
2177
2182
2201
2225
2247
2270
2300
2340
2361
2398
2427
2435
2464
2475
2483
2487
2477
2466
2444
2435
2412
2380
2335
2273
2209
2143
2082
2028
1968
1934
1899
1872
1862
1847
1844
1840
1841
1845
1843
1854
1863
1862
1876
1879
1886
1897
1909
1920
1929
1935
1944
1950
1958
1963
1962
1973
1975
1977
1979
1979
1981
1983
1985
1979
1988
1989
1995
1985
1994
1998
1994
2006
1996
1998
2000
2013
2009
2008
2011
2022
2042
2046
2045
2043
2039
2041
2050
2041
2029
2042
2047
2047
2052
2052
2060
2078
2094
2079
2078
2083
2101
2133
2141
2145
2127
2116
2089
2068
2049
2046
2062
2049
2061
2055
2040
2048
2042
2038
2055
2065
2074
2074
2098
2065
2035
2025
2063
2001
1887
1787
1828
2128
2512
3157
3968
4095
4095
3607
2093
1209
1156
1093
1358
1449
1445
1537
1828
2060
2093
2103
2170
2193
2192
2203
2224
2211
2223
2254
2255
2274
2281
2311
2343
2353
2390
2413
2438
2484
2511
2538
2563
2585
2606
2617
2607
2609
2613
2590
2585
2563
2508
2480
2433
2356
2287
2190
2131
2060
2004
1964
1901
1871
1849
1834
1808
1788
1778
1778
1773
1775
1767
1755
1767
1768
1771
1774
1783
1787
1804
1813
1802
1811
1823
1821
1839
1836
1831
1831
1843
1848
1840
1847
1836
1838
1825
1822
1824
1805
1828
1827
1811
1817
1800
1797
1803
1814
1821
1810
1809
1820
1821
1823
1824
1816
1827
1864
1904
1913
1917
1914
1880
1887
1878
1855
1853
1829
1815
1818
1829
1825
1833
1829
1820
1836
1840
1854
1858
1866
1872
1877
1892
1861
1829
1830
1870
1820
1729
1620
1657
1944
2308
2922
3703
4095
3945
3425
2048
1136
1041
943
1142
1249
1265
1361
1638
1876
1954
1992
2073
2097
2083
2097
2128
2159
2164
2203
2206
2215
2245
2282
2309
2339
2365
2393
2435
2461
2498
2529
2553
2574
2602
2621
2630
2633
2630
2601
2585
2571
2537
2499
2443
2377
2286
2222
2157
2087
2035
1994
1958
1927
1910
1890
1876
1877
1877
1867
1870
1866
1868
1879
1879
1885
1895
1902
1892
1901
1914
1913
1925
1940
1946
1950
1963
1961
1954
1978
1981
1977
1973
1969
1964
1953
1959
1943
1939
1958
1956
1946
1943
1947
1937
1966
2023
2023
2045
2043
1994
1987
1966
1942
1936
1909
1905
1899
1893
1911
1902
1910
1917
1920
1928
1928
1937
1947
1949
1955
1969
1949
1925
1900
1939
1889
1755
1652
1670
1953
2325
2939
3726
4095
4095
3653
2262
1177
1052
952
1173
1316
1311
1385
1675
1955
2014
2034
2098
2120
2131
2148
2151
2159
2173
2203
2229
2237
2238
2260
2288
2323
2353
2388
2415
2457
2500
2535
2569
2600
2630
2642
2652
2647
2638
2639
2630
2609
2576
2529
2465
2381
2311
2222
2145
2096
2030
1982
1958
1924
1901
1890
1875
1870
1869
1874
1862
1863
1866
1879
1886
1898
1896
1902
1910
1909
1932
1927
1940
1942
1953
1957
1951
1963
1965
1968
1971
1970
1959
1952
1960
1948
1950
1958
1946
1946
1934
1933
1922
1936
1947
1932
1929
1941
1946
1963
2005
2006
2013
2009
1992
1961
1921
1919
1908
1889
1892
1890
1880
1896
1915
1902
1908
1919
1905
1912
1924
1930
1938
1928
1936
1916
1886
1870
1900
1857
1739
1622
1638
1943
2339
2939
3725
4095
4070
3640
2245
1070
959
886
1109
1292
1311
1369
1686
1937
1946
1953
2007
2051
2062
2078
2079
2079
2098
2129
2138
2161
2186
2195
2212
2240
2257
2284
2318
2366
2405
2434
2471
2487
2525
2557
2565
2569
2570
2558
2553
2536
2507
2472
2415
2344
2262
2183
2107
2040
1970
1931
1893
1861
1847
1829
1814
1807
1799
1788
1791
1786
1785
1799
1801
1813
1825
1828
1838
1856
1868
1865
1866
1876
1879
1878
1887
1889
1884
1886
1896
1881
1879
1893
1881
1868
1865
1860
1852
1861
1870
1854
1854
1866
1861
1855
1865
1856
1855
1872
1858
1850
1846
1847
1834
1836
1846
1830
1834
1842
1834
1836
1863
1849
1855
1867
1888
1921
1943
1956
1943
1942
1924
1906
1883
1872
1851
1845
1835
1814
1825
1836
1843
1838
1841
1831
1828
1839
1848
1844
1846
1845
1843
1845
1821
1782
1823
1810
1673
1522
1486
1783
2220
2810
3589
4095
4035
3678
2386
992
833
780
993
1242
1265
1341
1646
1878
1878
1861
1895
1963
1986
1972
1974
2003
2008
2028
2027
2042
2065
2082
2095
2105
2139
2161
2193
2230
2261
2298
2341
2386
2415
2442
2450
2465
2472
2473
2471
2451
2436
2412
2364
2315
2246
2172
2103
2034
1970
1916
1882
1850
1814
1807
1790
1772
1769
1759
1751
1749
1754
1747
1750
1762
1770
1776
1786
1789
1791
1796
1799
1803
1808
1815
1819
1812
1808
1811
1808
1810
1816
1816
1815
1826
1821
1814
1813
1806
1805
1803
1815
1802
1808
1807
1801
1803
1797
1796
1790
1787
1790
1795
1792
1797
1781
1780
1787
1784
1787
1781
1777
1778
1783
1784
1782
1788
1798
1801
1802
1803
1787
1795
1797
1790
1811
1822
1825
1830
1829
1821
1861
1899
1913
1925
1920
1895
1888
1879
1856
1840
1833
1815
1804
1815
1818
1825
1825
1832
1824
1837
1842
1836
1845
1868
1864
1870
1884
1887
1865
1828
1847
1868
1768
1605
1500
1718
2160
2695
3463
4095
4095
3986
2988
1327
905
894
1022
1337
1417
1449
1704
1986
2001
1981
1980
2071
2106
2079
2065
2086
2118
2143
2146
2163
2172
2190
2213
2224
2250
2267
2295
2319
2354
2390
2416
2448
2479
2502
2524
2538
2534
2534
2530
2515
2501
2484
2450
2398
2337
2253
2181
2125
2065
2007
1957
1916
1885
1873
1864
1844
1834
1836
1829
1824
1830
1822
1832
1842
1855
1854
1857
1872
1864
1876
1880
1885
1900
1902
1901
1899
1898
1904
1903
1906
1905
1905
1922
1916
1910
1913
1910
1915
1907
1911
1897
1901
1922
1902
1901
1903
1894
1896
1903
1899
1898
1906
1908
1898
1897
1899
1893
1897
1898
1889
1893
1898
1896
1898
1899
1898
1890
1908
1896
1893
1903
1896
1898
1898
1906
1899
1910
1906
1908
1919
1919
1929
1929
1925
1956
1995
2012
2026
2018
1990
1982
1964
1940
1933
1907
1896
1897
1896
1893
1904
1896
1894
1898
1908
1897
1895
1920
1921
1934
1941
1944
1950
1944
1902
1873
1930
1859
1699
1567
1703
2071
2557
3272
4089
4095
4095
3487
1761
981
972
964
1319
1436
1448
1619
1942
2027
1979
1983
2040
2086
2081
2051
2064
2085
2098
2111
2115
2135
2157
2174
2192
2204
2226
2252
2269
2301
2332
2354
2395
2425
2444
2470
2477
2482
2472
2471
2459
2444
2424
2386
2335
2278
2203
2132
2073
2005
1960
1899
1848
1810
1794
1777
1765
1753
1739
1736
1740
1738
1735
1737
1734
1750
1745
1754
1756
1755
1764
1777
1775
1780
1788
1781
1790
1784
1793
1800
1804
1812
1811
1811
1815
1813
1811
1811
1811
1822
1824
1833
1834
1838
1837
1835
1838
1833
1843
1848
1846
1856
1866
1862
1870
1871
1862
1869
1876
1872
1869
1877
1880
1876
1886
1889
1882
1892
1905
1903
1905
1911
1912
1918
1924
1925
1937
1939
1949
1943
1941
1961
1995
2025
2027
2026
2004
1998
1983
1972
1954
1944
1937
1940
1934
1952
1965
1952
1950
1939
1943
1953
1972
1976
1976
1970
1987
1991
1965
1947
1944
1975
1872
1747
1630
1774
2132
2600
3343
4095
4095
4095
3309
1694
1108
1044
1064
1343
1391
1395
1539
1892
2017
2026
2046
2116
2124
2124
2132
2136
2167
2196
2212
2226
2248
2264
2302
2316
2340
2371
2395
2426
2442
2468
2513
2540
2580
2605
2607
2625
2632
2634
2624
2611
2585
2561
2525
2476
2407
2335
2261
2184
2130
2064
2022
1988
1947
1931
1912
1896
1902
1882
1870
1870
1864
1866
1866
1875
1870
1882
1901
1908
1922
1937
1948
1942
1950
1964
1963
1969
1987
1979
1992
2005
2004
2010
2007
2000
1997
1998
1989
1992
1985
1981
1974
1974
1962
1959
1967
1955
1959
1970
1956
1952
1960
1956
1954
1962
1953
1941
1954
1963
1943
1946
1935
1942
1944
1942
1952
1947
1956
1964
1955
1963
1983
2019
2018
2027
2031
2006
1999
1977
1950
1928
1930
1923
1928
1933
1942
1931
1925
1930
1927
1940
1943
1958
1946
1958
1970
1979
1956
1931
1927
1961
1898
1787
1680
1750
2070
2462
3108
3862
4095
3989
3413
1976
1154
1086
1014
1245
1351
1363
1457
1763
1976
2029
2060
2134
2153
2145
2160
2177
2191
2209
2246
2270
2277
2315
2337
2355
2384
2408
2440
2469
2495
2524
2575
2600
2631
2657
2670
2680
2688
2677
2669
2652
2642
2612
2571
2516
2441
2370
2287
2231
2159
2101
2053
2011
1974
1953
1947
1930
1936
1919
1907
1924
1911
1929
1918
1913
1927
1931
1946
1950
1950
1960
1974
1973
1970
1979
1990
1992
2005
2002
1999
2009
2017
2007
2000
2007
2003
2002
1990
1989
1974
1976
1975
1967
1969
1972
1976
1964
1965
1955
1956
1960
1953
1953
1950
1955
1955
1972
1964
1961
1970
1970
1973
1976
1976
1969
1977
1985
1995
2000
2015
2014
2007
2029
2053
2067
2074
2064
2052
2039
2031
2003
1987
1973
1958
1968
1952
1957
1974
1973
1971
1969
1972
1970
1988
1999
1992
1992
2017
1987
1954
1939
1979
1929
1810
1689
1722
2062
2489
3122
3886
4095
4078
3588
2174
1172
1105
1040
1281
1404
1421
1501
1809
2049
2065
2075
2132
2176
2177
2183
2197
2195
2227
2247
2256
2267
2279
2301
2322
2348
2372
2411
2433
2469
2508
2542
2594
2620
2646
2664
2677
2701
2703
2715
2702
2685
2666
2621
2566
2493
2419
2336
2259
2199
2129
2082
2042
2006
1975
1964
1949
1936
1924
1920
1920
1916
1932
1918
1924
1934
1942
1953
1952
1960
1958
1970
1977
1980
1989
1989
1993
1995
2000
2000
2008
2006
2001
1994
1986
1983
1983
1980
1967
1966
1958
1957
1962
1949
1951
1954
1955
1958
1951
1942
1952
1948
1936
1942
1925
1922
1923
1927
1911
1921
1933
1934
1937
1944
1946
1936
1956
1950
1958
1954
1960
1956
1959
1965
1956
1976
1981
1986
1993
1991
1985
2020
2042
2031
2034
2013
1998
1991
1970
1953
1935
1939
1940
1939
1931
1933
1922
1929
1934
1942
1958
1957
1965
1951
1979
1964
1930
1901
1942
1918
1794
1640
1627
1963
2405
3011
3785
4095
4063
3674
2289
1040
954
900
1150
1365
1382
1455
1766
1978
1971
1951
1988
2052
2056
2054
2054
2075
2092
2099
2109
2119
2135
2155
2163
2181
2215
2229
2261
2289
2324
2361
2396
2428
2454
2489
2497
2520
2519
2522
2517
2506
2493
2454
2408
2345
2272
2199
2132
2062
2002
1959
1919
1884
1857
1831
1817
1808
1803
1806
1788
1787
1792
1783
1798
1794
1795
1800
1810
1819
1822
1825
1830
1831
1842
1846
1848
1856
1860
1868
1865
1872
1871
1868
1871
1874
1862
1866
1871
1864
1861
1867
1860
1858
1866
1857
1853
1853
1865
1859
1853
1855
1849
1849
1854
1850
1839
1851
1850
1848
1854
1849
1849
1852
1853
1850
1852
1859
1851
1857
1861
1859
1856
1863
1864
1857
1875
1871
1862
1876
1878
1869
1893
1908
1911
1905
1909
1899
1915
1968
1955
1953
1947
1922
1913
1899
1880
1868
1878
1876
1872
1874
1876
1879
1881
1880
1874
1894
1919
1918
1917
1928
1933
1907
1879
1890
1911
1811
1643
1553
1802
2241
2786
3542
4095
4095
3920
2901
1286
935
921
1054
1370
1441
1473
1728
2012
2025
1996
2007
2091
2115
2110
2089
2109
2140
2156
2163
2174
2201
2204
2226
2250
2266
2294
2329
2343
2373
2417
2450
2485
2524
2541
2560
2569
2583
2586
2578
2582
2551
2524
2496
2442
2370
2302
2226
2153
2092
2044
1990
1943
1922
1889
1868
1871
1859
1849
1847
1841
1838
1849
1858
1856
1858
1862
1865
1869
1876
1877
1876
1889
1894
1892
1892
1898
1901
1901
1903
1897
1900
1916
1915
1905
1902
1903
1904
1905
1908
1896
1894
1895
1893
1879
1894
1897
1888
1890
1890
1889
1891
1895
1877
1877
1877
1884
1882
1886
1881
1884
1886
1889
1882
1878
1888
1880
1890
1894
1896
1890
1897
1886
1881
1893
1893
1898
1899
1900
1899
1907
1900
1905
1912
1912
1905
1901
1911
1928
1942
1936
1936
1929
1963
1983
1995
1982
1968
1955
1927
1916
1898
1899
1890
1891
1889
1895
1891
1893
1886
1884
1883
1895
1913
1901
1919
1930
1943
1923
1874
1875
1917
1820
1667
1553
1728
2125
2647
3365
4095
4095
4042
3201
1511
953
938
1004
1330
1397
1397
1606
1924
1964
1925
1930
2002
2043
2031
2015
2028
2054
2069
2080
2078
2095
2116
2134
2149
2168
2196
2217
2252
2276
2317
2338
2376
2412
2437
2458
2467
2479
2464
2469
2461
2439
2429
2388
2343
2280
2208
2139
2059
1999
1946
1894
1844
1820
1788
1765
1757
1747
1733
1729
1736
1727
1722
1733
1729
1728
1752
1753
1760
1775
1781
1784
1802
1806
1802
1804
1811
1806
1808
1824
1810
1809
1813
1816
1802
1804
1807
1798
1812
1819
1818
1819
1822
1817
1821
1810
1810
1820
1818
1806
1809
1819
1823
1821
1831
1826
1814
1838
1835
1834
1831
1848
1839
1840
1848
1843
1842
1850
1858
1849
1863
1862
1859
1866
1867
1860
1871
1871
1868
1875
1886
1898
1893
1898
1903
1898
1934
1961
1947
1952
1940
1927
1908
1902
1883
1872
1889
1888
1885
1883
1886
1877
1882
1888
1893
1915
1925
1930
1925
1943
1933
1890
1883
1926
1880
1755
1654
1656
1970
2356
2951
3740
4095
4095
3681
2297
1180
1072
976
1210
1352
1350
1415
1699
1961
2023
2032
2093
2142
2130
2147
2155
2170
2176
2217
2237
2252
2274
2308
2329
2363
2396
2416
2454
2472
2510
2548
2588
2613
2640
2660
2666
2678
2683
2675
2657
2644
2612
2585
2547
2483
2420
2339
2264
2207
2140
2085
2051
1999
1968
1953
1929
1925
1923
1914
1907
1902
1899
1893
1896
1899
1914
1917
1916
1927
1919
1936
1948
1945
1957
1964
1973
1988
1996
1994
2002
2014
2007
2011
2010
1994
1994
1998
1995
1994
2002
1984
1973
1971
1975
1976
1968
1967
1959
1954
1964
1968
1953
1964
1969
1957
1967
1971
1965
1963
1964
1956
1957
1974
1968
1971
1969
1968
1966
1967
1977
1988
1996
2001
1990
1978
2008
2022
2047
2050
2027
2013
1991
1976
1965
1955
1948
1949
1965
1950
1950
1955
1950
1956
1964
1979
1971
1986
1991
2001
1978
1964
1950
1974
1916
1801
1691
1759
2074
2451
3105
3871
4095
4028
3471
2038
1177
1115
1046
1278
1376
1377
1466
1770
2011
2054
2074
2143
2160
2161
2183
2189
2196
2216
2252
2259
2279
2297
2310
2351
2366
2390
2425
2455
2483
2515
2552
2583
2614
2648
2664
2680
2691
2691
2675
2651
2637
2604
2574
2526
2456
2381
2300
2234
2171
2109
2065
2005
1970
1952
1936
1931
1919
1910
1900
1905
1913
1909
1914
1912
1905
1924
1921
1931
1932
1933
1942
1950
1968
1967
1975
1976
1976
1983
1987
1985
1991
2000
1991
1985
1982
1976
1973
1974
1966
1954
1963
1957
1964
1957
1955
1960
1955
1962
1958
1950
1945
1948
1943
1943
1943
1931
1937
1927
1937
1947
1949
1964
1957
1971
1968
1979
1979
1973
1977
1974
1994
2001
2013
2008
2007
2015
2027
2057
2064
2063
2055
2036
2024
1997
1985
1983
1979
1983
1989
1983
1980
1987
1985
1988
2003
2006
2010
2003
2012
2026
1994
1977
1974
1998
1918
1783
1679
1856
2222
2706
3394
4095
4095
3960
3181
1600
1063
1042
1078
1358
1428
1443
1607
1945
2056
2038
2056
2117
2147
2146
2158
2162
2168
2189
2199
2206
2227
2247
2254
2273
2288
2316
2346
2380
2412
2442
2473
2511
2540
2567
2594
2600
2609
2610
2610
2594
2582
2552
2511
2467
2388
2316
2239
2167
2100
2047
2007
1962
1937
1915
1888
1866
1873
1861
1852
1859
1850
1846
1848
1847
1841
1853
1865
1878
1887
1893
1889
1896
1898
1906
1916
1919
1920
1914
1932
1926
1928
1924
1920
1921
1919
1918
1905
1902
1907
1911
1903
1906
1900
1901
1897
1890
1886
1881
1892
1891
1886
1881
1879
1875
1873
1866
1853
1850
1855
1853
1853
1862
1856
1866
1870
1861
1867
1873
1878
1881
1877
1879
1878
1888
1883
1885
1900
1918
1919
1906
1915
1903
1949
1970
1967
1964
1939
1933
1910
1898
1886
1879
1880
1887
1880
1879
1883
1878
1883
1884
1906
1921
1930
1930
1922
1939
1927
1888
1875
1922
1851
1710
1576
1697
2093
2592
3261
4039
4095
4001
3383
1741
938
952
956
1285
1424
1426
1592
1924
2021
1997
1977
2046
2096
2094
2081
2084
2112
2128
2147
2153
2180
2193
2213
2229
2239
2266
2294
2318
2345
2385
2412
2449
2488
2509
2532
2546
2562
2555
2556
2549
2529
2509
2479
2426
2360
2294
2219
2150
2080
2020
1964
1922
1895
1871
1848
1846
1829
1830
1829
1822
1825
1824
1827
1826
1826
1829
1834
1849
1849
1865
1858
1865
1872
1869
1886
1883
1900
1896
1901
1897
1903
1905
1907
1914
1904
1906
1912
1907
1903
1909
1903
1909
1911
1907
1905
1896
1901
1904
1901
1905
1904
1904
1903
1910
1899
1901
1904
1899
1897
1894
1902
1898
1909
1904
1898
1908
1907
1900
1909
1906
1899
1912
1911
1907
1914
1923
1913
1915
1919
1910
1909
1927
1946
1947
1958
1947
1943
1957
1990
2014
2007
2009
1988
1962
1948
1931
1918
1915
1920
1918
1918
1917
1922
1923
1928
1931
1932
1942
1954
1959
1953
1974
1969
1946
1907
1934
1949
1824
1661
1599
1871
2306
2876
3642
4095
4095
3941
2788
1230
987
957
1137
1446
1482
1532
1805
2059
2055
2025
2039
2125
2143
2129
2121
2137
2169
2184
2201
2206
2218
2233
2247
2279
2291
2319
2341
2368
2402
2435
2467
2493
2529
2552
2565
2581
2591
2586
2581
2569
2549
2531
2498
2439
2369
2291
2215
2149
2088
2037
1987
1953
1917
1889
1882
1869
1859
1856
1847
1840
1849
1851
1845
1855
1854
1848
1856
1861
1867
1873
1884
1883
1885
1887
1889
1890
1895
1902
1908
1908
1906
1915
1907
1911
1909
1905
1898
1898
1892
1878
1867
1866
1860
1860
1863
1851
1845
1837
1838
1831
1827
1820
1820
1810
1809
1798
1787
1798
1796
1795
1793
1789
1785
1793
1783
1778
1776
1773
1772
1784
1787
1788
1798
1784
1778
1784
1791
1785
1797
1798
1786
1795
1789
1784
1787
1792
1786
1805
1812
1810
1826
1814
1823
1848
1872
1877
1877
1856
1837
1811
1804
1797
1779
1782
1800
1803
1808
1829
1812
1828
1836
1835
1841
1856
1866
1874
1887
1898
1881
1851
1845
1886
1811
1679
1562
1655
2010
2461
3116
3932
4095
4095
3553
1948
1053
1018
980
1271
1388
1391
1499
1852
2018
2017
2005
2066
2110
2098
2101
2116
2138
2154
2191
2199
2211
2242
2270
2275
2296
2326
2351
2375
2407
2435
2459
2501
2526
2542
2568
2580
2584
2594
2575
2567
2556
2537
2508
2462
2401
2321
2256
2178
2109
2050
1994
1952
1915
1878
1868
1843
1843
1839
1821
1822
1819
1819
1808
1811
1805
1811
1828
1837
1836
1847
1853
1865
1870
1880
1888
1887
1900
1894
1894
1901
1913
1914
1922
1918
1914
1924
1917
1922
1902
1900
1903
1898
1913
1904
1887
1896
1895
1887
1896
1889
1879
1890
1896
1888
1895
1893
1889
1891
1898
1897
1902
1901
1902
1892
1892
1901
1898
1905
1903
1905
1897
1903
1907
1914
1907
1915
1907
1904
1921
1922
1922
1932
1940
1930
1939
1935
1943
1972
2000
1992
1994
1973
1959
1953
1930
1921
1906
1914
1915
1913
1922
1923
1913
1927
1923
1918
1940
1950
1947
1962
1958
1975
1968
1930
1916
1948
1932
1819
1708
1720
2006
2393
2994
3755
4095
4080
3656
2335
1238
1141
1043
1238
1393
1388
1450
1744
1996
2051
2059
2130
2173
2164
2181
2184
2202
2224
2249
2252
2273
2290
2332
2367
2388
2411
2439
2474
2502
2531
2570
2588
2619
2651
2672
2688
2699
2708
2689
2687
2678
2640
2603
2555
2482
2416
2349
2266
2185
2127
2072
2016
1985
1961
1928
1923
1919
1890
1892
1886
1869
1881
1880
1874
1877
1877
1861
1877
1883
1881
1889
1888
1898
1899
1916
1910
1916
1927
1944
1937
1940
1944
1937
1948
1950
1952
1945
1954
1936
1935
1935
1928
1924
1920
1915
1907
1908
1903
1902
1901
1908
1897
1893
1895
1896
1893
1896
1893
1889
1899
1897
1898
1897
1894
1894
1894
1902
1902
1901
1892
1888
1902
1892
1903
1910
1914
1932
1928
1927
1921
1951
1980
1983
1985
1964
1948
1946
1928
1908
1902
1890
1896
1908
1901
1902
1903
1904
1900
1911
1926
1929
1938
1939
1936
1956
1952
1923
1907
1944
1867
1746
1642
1734
2075
2507
3165
3911
4095
3998
3425
1940
1094
1056
1009
1266
1372
1379
1478
1808
2009
2023
2033
2096
2137
2138
2147
2150
2158
2173
2205
2216
2227
2249
2276
2299
2325
2355
2374
2416
2448
2489
2525
2570
2603
2631
2673
2684
2686
2703
2695
2675
2665
2639
2591
2541
2482
2393
2322
2252
2183
2125
2081
2037
1996
1986
1970
1957
1951
1940
1933
1930
1944
1940
1937
1943
1946
1944
1954
1964
1975
1975
1983
1985
1974
1992
1996
1999
2000
2015
2015
2012
2021
2019
2024
2025
2021
2017
2008
2011
2010
1988
1987
1984
1976
1980
1978
1967
1966
1965
1961
1959
1960
1958
1952
1953
1941
1937
1935
1932
1930
1931
1928
1924
1937
1940
1938
1946
1940
1940
1946
1939
1937
1934
1938
1940
1943
1949
1951
1944
1952
1950
1941
1946
1934
1946
1965
1981
1961
1962
1966
1966
2015
2017
2012
1999
1987
1977
1956
1947
1941
1924
1935
1951
1944
1952
1952
1943
1944
1950
1961
1980
1983
1985
1978
1990
1988
1949
1919
1953
1934
1811
1643
1648
1997
2471
3077
3869
4095
4095
3757
2353
1080
993
955
1213
1449
1464
1555
1871
2053
2050
2016
2058
2138
2140
2138
2130
2159
2175
2191
2195
2201
2225
2232
2248
2268
2287
2310
2334
2375
2405
2444
2475
2503
2538
2569
2597
2604
2614
2617
2610
2605
2589
2561
2520
2452
2388
2296
2229
2166
2096
2046
1994
1952
1920
1904
1892
1880
1874
1866
1856
1856
1855
1857
1862
1869
1862
1868
1871
1870
1880
1892
1893
1897
1907
1901
1904
1903
1908
1904
1916
1927
1918
1926
1927
1918
1920
1925
1919
1920
1923
1920
1915
1921
1917
1911
1920
1919
1913
1909
1910
1905
1905
1911
1898
1894
1904
1903
1898
1901
1902
1892
1908
1905
1900
1908
1905
1902
1895
1902
1895
1899
1909
1906
1900
1909
1911
1912
1920
1924
1910
1915
1923
1913
1921
1923
1913
1923
1945
1953
1962
1954
1956
1946
1971
2005
1998
2006
1991
1974
1955
1944
1931
1916
1923
1920
1915
1924
1922
1917
1924
1919
1915
1922
1943
1944
1952
1955
1965
1957
1928
1900
1932
1930
1790
1619
1609
1950
2406
3004
3805
4095
4095
3896
2529
1125
999
955
1209
1473
1478
1555
1851
2053
2042
2008
2043
2118
2119
2105
2094
2117
2147
2167
2168
2190
2197
2218
2234
2260
2272
2290
2320
2339
2374
2404
2429
2452
2493
2512
2532
2552
2557
2552
2551
2544
2522
2500
2465
2401
2331
2264
2187
2119
2057
1998
1943
1903
1880
1857
1844
1828
1825
1819
1812
1812
1808
1804
1811
1812
1799
1807
1805
1811
1823
1826
1829
1833
1836
1831
1844
1851
1860
1872
1874
1870
1864
1865
1869
1870
1871
1873
1864
1857
1861
1865
1856
1862
1853
1854
1862
1859
1869
1862
1873
1881
1890
1893
1900
1905
1918
1926
1930
1942
1934
1942
1954
1950
1959
1972
1970
1972
1984
1989
1994
2005
2003
2004
2003
2018
2014
2022
2033
2028
2035
2039
2040
2051
2057
2057
2061
2064
2076
2084
2102
2103
2101
2103
2103
2114
2144
2154
2143
2140
2120
2096
2075
2062
2053
2049
2062
2049
2044
2048
2054
2047
2047
2052
2042
2066
2074
2078
2077
2092
2094
2058
2028
2049
2049
1935
1815
1765
2028
2405
2959
3717
4095
4095
4041
2921
1459
1208
1118
1256
1484
1500
1502
1739
2052
2105
2096
2134
2198
2189
2198
2196
2203
2221
2253
2260
2255
2284
2315
2328
2354
2373
2388
2420
2456
2484
2508
2544
2569
2598
2622
2641
2643
2648
2662
2649
2646
2634
2602
2556
2508
2433
2350
2287
2221
2140
2087
2034
1983
1958
1931
1916
1905
1895
1886
1880
1879
1882
1880
1880
1880
1892
1890
1888
1887
1886
1902
1911
1908
1914
1929
1924
1942
1940
1937
1954
1951
1958
1957
1964
1967
1967
1970
1969
1959
1966
1957
1940
1948
1945
1932
1937
1940
1930
1931
1931
1923
1922
1933
1920
1923
1923
1927
1938
1931
1936
1929
1926
1928
1925
1923
1924
1932
1923
1922
1925
1920
1922
1927
1929
1920
1934
1933
1923
1925
1933
1946
1945
1949
1943
1941
1970
2001
1994
1991
1973
1965
1947
1932
1926
1899
1915
1915
1920
1910
1915
1915
1915
1917
1919
1920
1932
1943
1943
1956
1966
1938
1914
1920
1938
1849
1725
1640
1800
2149
2614
3304
4010
4095
3930
3152
1652
1113
1045
1056
1305
1346
1366
1517
1848
1996
2013
2043
2119
2120
2126
2144
2147
2168
2196
2207
2222
2240
2254
2282
2309
2330
2351
2377
2402
2432
2472
2511
2542
2570
2598
2611
2634
2639
2637
2634
2613
2604
2576
2534
2476
2408
2328
2256
2193
2125
2065
2025
1973
1941
1921
1894
1896
1880
1889
1883
1875
1876
1876
1870
1878
1884
1886
1900
1888
1904
1898
1907
1914
1911
1921
1917
1926
1929
1937
1943
1952
1951
1946
1948
1945
1945
1937
1943
1940
1932
1929
1922
1912
1919
1922
1906
1906
1905
1903
1898
1900
1884
1886
1889
1883
1877
1871
1877
1876
1882
1880
1880
1884
1893
1894
1892
1890
1895
1901
1899
1910
1900
1912
1917
1902
1915
1931
1942
1946
1934
1927
1930
1974
2003
1988
1993
1972
1957
1957
1938
1924
1917
1927
1930
1934
1936
1939
1933
1942
1944
1949
1973
1968
1971
1968
1994
1980
1950
1948
1971
1910
1796
1678
1774
2139
2585
3242
4007
4095
4062
3490
1969
1120
1103
1071
1341
1453
1457
1565
1907
2075
2077
2085
2154
2212
2208
2215
2216
2227
2248
2270
2274
2276
2298
2318
2327
2356
2366
2392
2418
2454
2488
2522
2568
2592
2639
2663
2679
2687
2699
2696
2685
2675
2649
2613
2556
2484
2394
2321
2256
2185
2119
2067
2012
1983
1955
1928
1918
1904
1901
1898
1891
1895
1887
1891
1892
1888
1893
1894
1900
1906
1913
1926
1926
1934
1945
1937
1946
1946
1947
1951
1961
1966
1961
1966
1963
1962
1954
1961
1947
1937
1939
1932
1924
1931
1925
1919
1926
1917
1917
1916
1910
1916
1920
1919
1919
1916
1918
1908
1913
1908
1902
1904
1907
1898
1894
1906
1896
1903
1905
1910
1903
1916
1919
1913
1912
1913
1919
1926
1947
1932
1922
1924
1931
1953
1964
1961
1945
1929
1903
1877
1864
1845
1846
1845
1841
1839
1839
1846
1843
1838
1839
1849
1853
1865
1861
1871
1880
1860
1816
1811
1858
1760
1606
1508
1721
2156
2681
3404
4095
4095
3923
3041
1356
861
865
960
1291
1375
1402
1626
1923
1956
1922
1914
2007
2045
2033
2025
2033
2062
2077
2094
2096
2116
2141
2149
2174
2195
2217
2233
2265
2285
2322
2370
2398
2437
2459
2486
2496
2520
2515
2518
2514
2496
2475
2434
2384
2307
2228
2154
2078
2011
1952
1896
1859
1828
1810
1788
1771
1771
1762
1766
1762
1755
1746
1743
1747
1735
1740
1738
1741
1743
1742
1745
1737
1752
1755
1755
1757
1749
1752
1751
1750
1751
1750
1753
1761
1768
1759
1762
1758
1757
1768
1778
1767
1766
1758
1757
1755
1763
1767
1758
1773
1774
1777
1780
1788
1782
1784
1790
1781
1786
1787
1793
1783
1802
1800
1801
1817
1811
1811
1816
1839
1850
1866
1867
1866
1860
1879
1906
1911
1926
1914
1900
1888
1861
1851
1854
1849
1854
1857
1858
1848
1863
1865
1859
1870
1892
1898
1916
1928
1925
1930
1896
1873
1881
1904
1807
1660
1587
1801
2180
2678
3439
4095
4095
4016
3073
1464
1030
989
1051
1346
1393
1383
1591
1928
2017
2007
2039
2102
2109
2124
2131
2140
2163
2187
2191
2198
2234
2241
2275
2302
2309
2344
2379
2415
2458
2510
2543
2582
2618
2644
2665
2677
2695
2695
2696
2686
2676
2638
2594
2531
2444
2362
2282
2209
2130
2078
2040
1996
1986
1965
1934
1929
1928
1919
1921
1921
1908
1914
1916
1909
1915
1920
1916
1918
1919
1924
1933
1944
1949
1947
1961
1964
1965
1966
1980
1972
1985
1994
1984
1996
1998
1999
1995
1988
1993
1990
1994
1997
1991
1988
1990
1989
1983
1993
1982
1985
1977
1970
1971
1973
1975
1978
1985
1988
1989
1985
1999
2008
2047
2059
2059
2045
2033
2017
2007
2002
1990
1988
1994
1990
1993
1996
1986
1994
1994
2001
2003
2018
2034
2025
2038
2044
2009
1991
2008
2023
1925
1815
1732
1906
2271
2747
3461
4095
4095
4049
3197
1642
1134
1074
1118
1383
1437
1452
1617
1957
2089
2093
2124
2196
2200
2201
2221
2222
2226
2264
2270
2292
2311
2329
2354
2365
2394
2420
2447
2472
2506
2539
2582
2617
2661
2689
2715
2741
2746
2746
2741
2727
2712
2667
2615
2532
2437
2364
2262
2188
2119
2055
2022
1989
1955
1937
1915
1906
1900
1894
1888
1874
1874
1880
1886
1896
1899
1887
1894
1905
1909
1918
1919
1923
1933
1949
1953
1951
1963
1964
1969
1978
1984
1977
1982
1978
1975
1973
1981
1970
1958
1974
1958
1955
1965
1949
1949
1954
1948
1940
1943
1951
1945
1945
1944
1927
1928
1931
1930
1927
1924
1930
1938
1950
1949
1935
1940
1953
1983
1991
1990
1975
1949
1951
1923
1903
1905
1896
1895
1900
1907
1891
1898
1906
1898
1900
1919
1919
1918
1920
1918
1925
1909
1883
1857
1899
1828
1689
1570
1708
2083
2575
3257
4035
4095
3993
3337
1673
909
917
921
1243
1373
1361
1538
1883
1987
1973
1959
2043
2080
2093
2095
2099
2133
2161
2169
2164
2184
2196
2210
2231
2255
2272
2303
2332
2359
2397
2438
2479
2519
2553
2588
2607
2627
2635
2633
2633
2620
2594
2538
2472
2385
2303
2231
2152
2081
2025
1978
1932
1913
1875
1860
1853
1840
1838
1833
1827
1826
1823
1828
1829
1835
1849
1835
1834
1838
1839
1853
1864
1863
1866
1869
1870
1877
1874
1884
1889
1897
1892
1894
1890
1894
1898
1891
1892
1879
1876
1886
1881
1878
1872
1865
1859
1866
1872
1866
1869
1865
1859
1859
1856
1851
1856
1848
1852
1854
1851
1860
1849
1848
1854
1851
1846
1851
1852
1868
1873
1873
1866
1858
1888
1906
1907
1910
1891
1863
1859
1841
1820
1823
1806
1807
1815
1812
1820
1823
1825
1822
1818
1824
1829
1841
1849
1854
1864
1870
1834
1789
1832
1820
1684
1536
1540
1856
2297
2910
3728
4095
4095
3825
2394
997
887
829
1085
1340
1335
1395
1715
1918
1903
1880
1900
1976
1975
1965
1967
1982
2016
2030
2028
2047
2045
2063
2081
2106
2121
2149
2171
2213
2248
2285
2331
2366
2416
2451
2482
2494
2511
2513
2505
2501
2483
2458
2403
2336
2258
2173
2088
2018
1943
1890
1844
1808
1773
1747
1746
1739
1737
1741
1721
1715
1728
1727
1739
1744
1746
1750
1751
1760
1763
1772
1781
1785
1784
1781
1789
1790
1789
1799
1794
1802
1810
1812
1816
1815
1813
1814
1819
1825
1827
1836
1840
1836
1853
1852
1838
1841
1842
1840
1850
1852
1835
1833
1837
1851
1848
1863
1860
1849
1867
1884
1877
1887
1898
1883
1915
1947
1946
1961
1966
1943
1937
1922
1899
1888
1892
1886
1882
1904
1903
1906
1917
1919
1912
1922
1929
1933
1937
1947
1956
1964
1954
1923
1913
1957
1880
1758
1654
1788
2136
2594
3305
4095
4095
4095
3410
1790
1079
1038
1012
1295
1377
1377
1510
1865
2025
2039
2055
2113
2136
2135
2150
2154
2179
2195
2231
2256
2283
2317
2346
2380
2393
2434
2473
2506
2554
2594
2634
2684
2730
2768
2798
2827
2836
2840
2848
2839
2820
2791
2734
2651
2561
2475
2371
2292
2225
2152
2105
2063
2030
2004
1986
1977
1967
1970
1962
1966
1961
1967
1972
1965
1971
1962
1970
1976
1975
1977
1970
1975
1981
1986
1997
1996
2004
2015
2007
2017
2018
2025
2022
2030
2032
2022
2028
2021
2015
2021
2016
2011
2001
2001
2006
2000
2003
1988
1986
1990
1996
2001
1996
2012
2014
2010
2011
1994
2002
2040
2069
2093
2096
2082
2071
2049
2047
2027
2009
2007
1989
1985
1991
1997
1993
2000
1997
1995
1998
1992
1981
1997
2013
2023
2032
2026
2043
2026
2001
1989
2027
1956
1832
1728
1855
2222
2695
3393
4095
4095
4095
3464
1853
1106
1067
1055
1340
1451
1463
1600
1954
2094
2079
2090
2162
2199
2204
2217
2220
2237
2266
2278
2277
2296
2311
2332
2345
2363
2389
2413
2456
2480
2513
2559
2598
2642
2685
2715
2735
2750
2765
2767
2761
2757
2716
2661
2590
2496
2392
2312
2230
2155
2099
2038
1995
1963
1946
1923
1911
1902
1894
1890
1890
1888
1877
1881
1885
1883
1888
1898
1898
1909
1915
1913
1916
1919
1931
1933
1941
1950
1943
1956
1957
1956
1962
1961
1961
1959
1958
1958
1958
1950
1948
1943
1940
1947
1943
1936
1933
1933
1932
1937
1934
1934
1939
1939
1943
1943
1935
1932
1927
1932
1931
1935
1955
1963
1963
1967
1970
1983
2021
2058
2067
2072
2066
2038
2028
2003
1984
1968
1946
1929
1917
1914
1904
1914
1913
1906
1920
1919
1909
1916
1922
1934
1931
1933
1935
1940
1923
1880
1879
1907
1824
1670
1554
1754
2192
2729
3463
4095
4095
4008
3151
1448
878
892
966
1312
1413
1430
1653
1950
2004
1968
1967
2035
2076
2071
2058
2079
2107
2124
2128
2143
2164
2168
2184
2204
2214
2246
2275
2304
2328
2376
2413
2451
2503
2538
2569
2591
2618
2626
2637
2645
2624
2593
2547
2467
2387
2298
2210
2120
2045
1988
1933
1908
1880
1849
1833
1820
1813
1808
1809
1801
1802
1805
1809
1812
1807
1823
1813
1826
1829
1820
1829
1830
1834
1837
1841
1837
1846
1853
1857
1863
1864
1863
1864
1864
1868
1861
1875
1869
1859
1867
1861
1860
1863
1862
1861
1865
1864
1857
1847
1855
1852
1849
1859
1848
1852
1854
1845
1845
1840
1844
1846
1846
1849
1837
1837
1834
1832
1838
1837
1828
1840
1852
1856
1861
1859
1856
1878
1918
1942
1945
1944
1930
1900
1896
1867
1846
1832
1814
1816
1805
1805
1811
1804
1813
1811
1812
1814
1804
1815
1831
1841
1846
1850
1853
1864
1827
1791
1821
1817
1685
1526
1500
1808
2254
2851
3664
4095
4095
3914
2596
1068
878
823
1032
1310
1325
1374
1676
1919
1903
1885
1923
1999
2000
1985
1968
2004
2048
2064
2075
2098
2112
2128
2151
2159
2191
2233
2264
2292
2343
2384
2432
2486
2524
2555
2588
2625
2627
2642
2646
2630
2611
2592
2539
2464
2392
2298
2196
2130
2059
2004
1958
1914
1885
1858
1852
1839
1839
1833
1833
1833
1829
1838
1835
1854
1857
1865
1878
1887
1892
1888
1892
1883
1897
1912
1910
1905
1907
1907
1907
1932
1925
1921
1919
1933
1919
1931
1938
1934
1948
1953
1955
1947
1955
1950
1947
1951
1954
1950
1951
1954
1962
1958
1964
1957
1945
1957
1966
1964
1965
1968
1954
1970
2006
2034
2052
2077
2047
2027
2025
2002
1993
1989
1974
1951
1959
1956
1961
1975
1975
1972
1968
1976
1971
1968
1991
2005
2005
2017
2026
2029
2003
1989
1969
2010
1909
1793
1699
1873
2256
2733
3477
4095
4095
4095
3271
1665
1144
1086
1124
1401
1459
1461
1619
1978
2097
2102
2132
2199
2213
2218
2230
2220
2239
2269
2293
2309
2327
2351
2369
2406
2424
2453
2482
2518
2555
2600
2646
2689
2734
2778
2803
2821
2833
2849
2855
2856
2832
2791
2738
2659
2563
2468
2368
2288
2221
2159
2101
2054
2033
2003
1991
1984
1974
1960
1969
1962
1955
1962
1952
1953
1959
1969
1972
1981
1982
1982
1982
1993
1998
2007
2017
2018
2015
2023
2030
2048
2051
2056
2048
2035
2048
2041
2045
2041
2032
2028
2020
2016
2007
2003
1997
1997
2002
2005
2000
1997
2000
1990
1985
2001
1977
1972
1986
1993
1980
1997
1992
1983
2038
2067
2084
2088
2085
2056
2043
2024
2009
1995
1977
1982
1955
1963
1968
1959
1960
1970
1961
1950
1953
1943
1957
1975
1977
1980
1983
1977
1933
1913
1961
1917
1781
1653
1717
2064
2547
3190
3991
4095
4095
3601
2047
1030
990
950
1226
1395
1396
1512
1854
2033
2018
2009
2076
2134
2144
2148
2146
2161
2188
2199
2212
2216
2240
2256
2262
2293
2316
2344
2366
2405
2428
2467
2513
2557
2586
2631
2649
2669
2683
2693
2689
2672
2658
2615
2551
2477
2387
2293
2212
2140
2074
2013
1984
1941
1914
1894
1876
1873
1862
1867
1851
1847
1849
1843
1834
1840
1839
1842
1846
1843
1834
1839
1848
1846
1856
1859
1852
1858
1868
1858
1871
1879
1874
1874
1880
1882
1869
1881
1865
1857
1867
1874
1867
1861
1855
1846
1849
1862
1852
1844
1843
1842
1840
1839
1832
1824
1825
1830
1823
1816
1816
1810
1806
1816
1809
1813
1831
1823
1817
1830
1830
1854
1905
1914
1910
1924
1901
1882
1873
1847
1820
1808
1799
1781
1782
1792
1794
1793
1788
1780
1781
1788
1788
1796
1802
1805
1802
1813
1829
1805
1759
1750
1787
1705
1550
1427
1595
2025
2548
3252
4057
4095
3972
3199
1453
775
768
835
1196
1295
1323
1540
1835
1916
1873
1844
1936
1986
1970
1957
1970
1988
2016
2033
2044
2067
2080
2095
2119
2135
2162
2187
2217
2256
2286
2324
2356
2404
2439
2483
2498
2515
2528
2524
2526
2517
2503
2462
2402
2319
2235
2146
2070
1989
1914
1856
1811
1775
1743
1731
1701
1706
1693
1686
1681
1678
1683
1676
1678
1677
1671
1681
1684
1688
1695
1698
1691
1672
1690
1679
1679
1687
1675
1666
1687
1690
1678
1686
1678
1683
1686
1697
1693
1688
1697
1700
1699
1711
1705
1709
1719
1718
1723
1727
1729
1734
1740
1736
1731
1732
1739
1740
1727
1742
1736
1745
1745
1748
1739
1743
1757
1756
1756
1767
1778
1783
1792
1784
1791
1807
1860
1894
1911
1911
1892
1875
1871
1851
1834
1821
1804
1802
1792
1801
1801
1805
1814
1813
1811
1817
1823
1829
1848
1862
1861
1871
1884
1869
1833
1820
1860
1811
1679
1554
1627
1974
2438
3107
3935
4095
4095
3604
2030
1015
981
913
1187
1333
1322
1412
1756
1973
1960
1974
2035
2069
2080
2080
2080
2098
2120
2154
2165
2191
2215
2253
2287
2313
2343
2377
2416
2439
2481
2514
2549
2595
2636
2669
2685
2706
2717
2721
2730
2726
2702
2662
2599
2530
2442
2365
2276
2196
2136
2068
2017
1985
1950
1929
1918
1902
1889
1886
1895
1884
1886
1888
1880
1890
1892
1894
1892
1903
1904
1904
1907
1912
1917
1925
1940
1932
1942
1956
1954
1955
1970
1973
1967
1978
1976
1977
1977
1977
1963
1959
1964
1961
1958
1951
1948
1947
1953
1941
1937
1944
1934
1926
1937
1943
1938
1953
1951
1940
1976
2019
2027
2037
2036
2010
1994
1995
1975
1964
1961
1948
1934
1934
1944
1940
1935
1940
1933
1934
1949
1946
1959
1973
1979
1974
1989
1985
1950
1927
1964
1929
1806
1703
1718
2023
2444
3045
3831
4095
4095
3762
2365
1161
1045
971
1210
1387
1402
1473
1775
2039
2055
2068
2118
2174
2180
2178
2188
2206
2221
2247
2256
2263
2286
2300
2320
2332
2366
2407
2428
2463
2503
2534
2589
2635
2673
2710
2736
2754
2760
2766
2757
2754
2733
2694
2631
2550
2450
2369
2285
2209
2134
2072
2024
1986
1970
1937
1928
1908
1906
1901
1901
1895
1890
1891
1882
1893
1891
1891
1892
1899
1908
1919
1925
1934
1930
1940
1956
1954
1963
1964
1960
1965
1965
1964
1958
1961
1966
1969
1961
1954
1951
1950
1956
1949
1957
1947
1951
1957
1951
1954
1957
1959
1949
1949
1947
1935
1939
1930
1922
1921
1917
1920
1924
1930
1933
1931
1932
1943
1964
2004
2016
2026
2033
2015
1998
1986
1965
1935
1928
1910
1902
1906
1915
1907
1903
1903
1903
1903
1909
1919
1930
1943
1933
1938
1943
1928
1893
1879
1915
1840
1690
1558
1716
2119
2636
3331
4095
4095
4022
3306
1599
863
878
912
1265
1394
1403
1603
1921
1993
1973
1959
2029
2078
2070
2055
2065
2105
2119
2122
2126
2140
2153
2174
2198
2211
2238
2260
2283
2318
2361
2397
2437
2468
2503
2533
2564
2599
2601
2618
2616
2597
2585
2544
2484
2409
2330
2234
2164
2094
2031
1981
1935
1904
1874
1858
1845
1836
1830
1827
1821
1821
1828
1830
1831
1836
1833
1833
1843
1846
1856
1862
1863
1862
1865
1874
1878
1868
1876
1880
1883
1894
1890
1890
1888
1889
1884
1879
1890
1892
1897
1887
1884
1878
1877
1888
1872
1876
1883
1867
1871
1871
1871
1873
1870
1871
1866
1862
1869
1854
1852
1859
1852
1859
1862
1862
1865
1855
1862
1863
1873
1874
1875
1877
1892
1934
1967
1971
1971
1953
1920
1921
1891
1879
1860
1847
1844
1830
1840
1836
1836
1826
1824
1820
1818
1835
1850
1857
1855
1852
1863
1868
1837
1802
1846
1802
1664
1509
1534
1860
2303
2914
3725
4095
4095
3750
2246
927
840
780
1060
1280
1270
1358
1690
1887
1860
1834
1876
1957
1948
1934
1924
1941
1979
1995
1999
2002
2034
2037
2078
2077
2098
2126
2150
2199
2229
2271
2305
2358
2405
2437
2463
2486
2497
2508
2521
2509
2495
2464
2411
2341
2262
2178
2100
2015
1954
1885
1838
1808
1761
1743
1730
1720
1726
1711
1702
1694
1694
1704
1709
1711
1721
1726
1727
1733
1739
1739
1750
1764
1770
1771
1779
1780
1783
1795
1805
1796
1803
1800
1802
1806
1805
1815
1809
1816
1818
1802
1809
1804
1802
1811
1805
1806
1803
1800
1808
1805
1816
1809
1815
1820
1810
1827
1820
1820
1846
1843
1843
1839
1833
1844
1880
1916
1922
1917
1914
1894
1876
1874
1856
1843
1836
1828
1821
1818
1833
1829
1823
1829
1835
1824
1831
1843
1853
1871
1885
1879
1893
1875
1842
1850
1889
1808
1693
1603
1730
2084
2543
3260
4044
4095
4047
3309
1707
1041
1004
980
1274
1352
1348
1495
1848
2020
2025
2056
2117
2143
2152
2150
2169
2173
2204
2240
2257
2269
2294
2324
2346
2369
2393
2429
2451
2486
2529
2563
2599
2642
2671
2687
2711
2716
2712
2714
2709
2697
2674
2626
2554
2465
2383
2300
2228
2151
2083
2026
1978
1948
1933
1906
1900
1888
1877
1891
1889
1882
1890
1885
1881
1887
1888
1884
1880
1896
1901
1896
1918
1919
1914
1928
1932
1930
1940
1955
1950
1962
1961
1958
1963
1949
1960
1949
1949
1952
1942
1934
1939
1934
1942
1949
1934
1931
1928
1936
1930
1936
1936
1939
1943
1939
1947
1958
2003
2032
2046
2052
2044
2022
2021
2000
1991
1985
1983
1969
1974
1974
1980
1988
1976
1990
1979
1991
1994
1999
2006
2011
2009
2028
2013
1979
1961
1988
1958
1831
1710
1735
2058
2476
3087
3883
4095
4095
3759
2303
1111
1030
968
1218
1405
1430
1506
1832
2072
2059
2055
2115
2168
2183
2192
2196
2206
2228
2247
2252
2269
2281
2297
2311
2324
2351
2378
2405
2447
2475
2521
2556
2605
2634
2670
2687
2696
2717
2714
2717
2704
2672
2634
2569
2497
2411
2320
2239
2165
2100
2052
2006
1974
1956
1935
1920
1915
1906
1899
1896
1891
1881
1887
1893
1896
1906
1906
1908
1912
1913
1926
1928
1932
1938
1939
1947
1951
1951
1952
1952
1951
1950
1951
1936
1937
1927
1926
1923
1922
1919
1907
1906
1901
1898
1899
1891
1893
1893
1888
1897
1880
1887
1879
1881
1889
1878
1882
1878
1876
1869
1867
1874
1885
1887
1893
1891
1895
1921
1969
1968
1982
1996
1965
1950
1938
1901
1882
1881
1867
1856
1846
1858
1855
1855
1870
1852
1848
1852
1864
1872
1886
1890
1876
1898
1894
1847
1822
1866
1831
1687
1539
1577
1935
2422
3048
3874
4095
4095
3626
2060
894
855
831
1143
1358
1364
1509
1831
1978
1959
1922
1974
2055
2051
2036
2041
2075
2087
2110
2116
2125
2141
2156
2164
2187
2222
2244
2268
2303
2333
2361
2416
2453
2489
2528
2544
2558
2573
2580
2576
2572
2559
2528
2480
2421
2328
2245
2169
2096
2034
1983
1937
1904
1874
1858
1835
1827
1827
1818
1820
1810
1814
1817
1813
1817
1820
1821
1829
1822
1829
1838
1828
1844
1839
1834
1856
1854
1849
1860
1855
1859
1864
1866
1873
1871
1868
1871
1861
1869
1879
1867
1872
1875
1869
1870
1867
1863
1865
1872
1869
1864
1869
1864
1865
1867
1862
1855
1854
1854
1854
1859
1851
1849
1840
1842
1840
1834
1840
1836
1835
1850
1862
1856
1867
1859
1865
1911
1937
1964
1959
1937
1917
1905
1883
1865
1840
1821
1819
1819
1817
1813
1813
1802
1807
1804
1799
1801
1800
1820
1826
1828
1830
1836
1822
1775
1769
1807
1724
1580
1442
1559
1915
2395
3076
3923
4095
4089
3468
1757
862
836
817
1137
1273
1261
1413
1778
1908
1878
1880
1937
1998
2002
1998
2002
2026
2048
2071
2085
2098
2121
2144
2169
2191
2215
2236
2268
2303
2346
2375
2417
2446
2489
2525
2548
2562
2565
2566
2572
2569
2551
2525
2462
2396
2323
2242
2173
2112
2036
1967
1923
1878
1858
1840
1821
1819
1808
1809
1801
1797
1795
1798
1801
1804
1819
1816
1827
1825
1824
1838
1841
1847
1858
1860
1868
1867
1872
1873
1871
1879
1889
1886
1879
1886
1874
1885
1879
1878
1879
1875
1887
1883
1883
1883
1885
1889
1890
1886
1896
1889
1890
1880
1883
1894
1906
1912
1905
1895
1912
1955
1981
2007
1995
1970
1951
1945
1920
1908
1898
1880
1873
1872
1871
1869
1887
1884
1877
1881
1875
1883
1901
1912
1918
1911
1927
1935
1905
1881
1885
1917
1821
1718
1635
1787
2147
2602
3315
4068
4095
4007
3182
1598
1037
963
984
1265
1323
1339
1487
1842
1991
2007
2047
2111
2113
2117
2147
2147
2163
2194
2214
2232
2252
2277
2294
2328
2352
2376
2407
2431
2472
2505
2535
2573
2601
2634
2663
2675
2679
2682
2669
2675
2653
2618
2566
2488
2417
2323
2250
2160
2078
2022
1973
1940
1913
1888
1866
1856
1848
1844
1832
1833
1825
1821
1826
1823
1820
1831
1832
1832
1852
1851
1862
1869
1876
1873
1879
1895
1891
1907
1919
1922
1924
1937
1926
1929
1931
1937
1931
1929
1941
1920
1932
1925
1909
1914
1907
1920
1912
1905
1916
1900
1909
1923
1919
1935
1919
1921
1920
1961
2005
2033
2042
2032
2025
2010
2011
1978
1973
1963
1948
1949
1950
1953
1969
1973
1968
1976
1968
1976
1979
1988
1997
2005
2011
2023
1999
1966
1962
2000
1927
1804
1683
1808
2171
2631
3312
4095
4095
4095
3473
1827
1058
1037
1031
1328
1441
1442
1588
1950
2094
2087
2094
2165
2204
2209
2217
2226
2236
2264
2266
2273
2285
2304
2319
2337
2345
2379
2395
2423
2457
2484
2525
2569
2603
2633
2674
2695
2710
2716
2720
2711
2702
2670
2632
2552
2482
2396
2305
2235
2165
2102
2045
2016
1973
1967
1946
1925
1915
1913
1903
1900
1906
1896
1896
1904
1903
1894
1907
1910
1900
1913
1918
1919
1935
1938
1943
1940
1949
1950
1942
1942
1936
1940
1926
1933
1909
1920
1920
1909
1908
1898
1894
1901
1900
1897
1895
1891
1898
1895
1890
1889
1883
1887
1884
1880
1871
1870
1868
1864
1861
1841
1862
1867
1867
1868
1873
1878
1907
1953
1952
1967
1964
1953
1923
1920
1894
1867
1862
1842
1827
1841
1839
1841
1846
1851
1852
1842
1847
1853
1865
1879
1882
1872
1889
1885
1837
1818
1863
1800
1648
1514
1635
2024
2517
3205
4019
4095
4056
3423
1726
847
853
865
1217
1372
1384
1571
1888
1986
1951
1935
2017
2071
2062
2042
2045
2086
2108
2115
2112
2139
2146
2175
2186
2204
2234
2250
2287
2309
2345
2379
2419
2461
2493
2525
2550
2568
2568
2575
2570
2555
2536
2514
2442
2378
2299
2201
2132
2063
2003
1954
1920
1889
1856
1843
1833
1828
1825
1823
1810
1805
1820
1814
1811
1811
1800
1804
1816
1820
1812
1817
1816
1813
1821
1835
1822
1828
1837
1821
1824
1830
1816
1807
1820
1804
1802
1818
1814
1816
1818
1825
1817
1819
1808
1799
1798
1797
1796
1790
1791
1798
1796
1787
1780
1775
1772
1783
1777
1769
1773
1761
1758
1775
1755
1775
1793
1793
1795
1796
1793
1794
1854
1901
1907
1928
1925
1882
1888
1871
1847
1847
1847
1834
1823
1823
1828
1836
1840
1852
1824
1837
1839
1858
1874
1882
1883
1883
1898
1882
1846
1829
1891
1797
1668
1549
1667
2032
2504
3218
4048
4095
4095
3451
1757
977
947
939
1244
1355
1352
1491
1855
1998
1984
2004
2074
2097
2110
2102
2109
2140
2162
2187
2197
2217
2247
2274
2299
2314
2325
2355
2391
2422
2466
2504
2539
2583
2612
2644
2664
2684
2678
2676
2671
2653
2643
2605
2537
2462
2381
2299
2204
2141
2079
2025
1991
1955
1924
1907
1906
1890
1885
1875
1873
1876
1879
1884
1878
1886
1873
1878
1888
1891
1888
1907
1906
1910
1933
1934
1937
1945
1954
1964
1964
1972
1971
1969
1978
1981
1976
1971
1978
1972
1967
1971
1955
1951
1956
1942
1943
1943
1935
1939
1928
1943
1943
1951
1954
1947
1941
1979
2014
2030
2052
2029
2005
1993
1978
1952
1946
1933
1916
1918
1914
1905
1910
1917
1909
1913
1913
1914
1917
1942
1949
1939
1955
1969
1933
1914
1902
1935
1888
1777
1664
1728
2066
2492
3139
3938
4095
4068
3516
1984
1073
1006
947
1206
1334
1353
1447
1787
2004
2030
2036
2108
2129
2130
2153
2158
2170
2197
2221
2234
2237
2261
2277
2300
2340
2359
2397
2428
2455
2500
2537
2578
2618
2641
2675
2693
2706
2714
2715
2708
2684
2649
2590
2526
2444
2362
2271
2190
2117
2055
2008
1969
1938
1915
1894
1889
1878
1886
1879
1867
1870
1862
1875
1875
1868
1874
1870
1879
1889
1892
1902
1905
1914
1919
1929
1936
1941
1948
1956
1961
1959
1961
1953
1956
1961
1959
1957
1953
1954
1954
1952
1957
1945
1947
1947
1938
1945
1939
1937
1936
1934
1937
1932
1926
1913
1914
1921
1937
1931
1940
1946
1978
2024
2051
2069
2067
2054
2038
2025
2009
2004
1988
1977
1964
1966
1966
1974
1985
1973
1998
2001
1996
2009
2020
2020
2032
2031
2044
2035
2002
1989
2026
1979
1852
1715
1771
2123
2572
3218
4029
4095
4095
3688
2134
1096
1059
1014
1298
1459
1468
1569
1917
2116
2091
2099
2170
2218
2234
2235
2227
2245
2277
2289
2294
2304
2315
2336
2346
2362
2387
2413
2444
2485
2513
2551
2582
2630
2669
2704
2741
2752
2762
2775
2770
2750
2732
2675
2620
2534
2450
2362
2277
2221
2153
2103
2057
2024
2001
1983
1972
1958
1950
1950
1945
1952
1942
1941
1942
1937
1937
1943
1948
1954
1971
1973
1978
1976
1982
1993
1993
2006
2006
2005
2005
2008
2002
2004
2011
1999
2004
1992
1987
1982
1975
1968
1969
1976
1968
1968
1957
1954
1953
1951
1949
1947
1942
1946
1947
1940
1939
1931
1933
1928
1929
1928
1925
1923
1923
1924
1922
1928
1926
1932
1941
1958
1949
1955
1959
1966
2012
2026
2030
2035
2016
2002
1986
1965
1947
1928
1917
1900
1891
1896
1900
1901
1904
1898
1892
1894
1902
1910
1915
1930
1922
1914
1936
1927
1878
1862
1914
1852
1706
1563
1658
2045
2551
3224
4047
4095
4095
3544
1884
914
898
903
1233
1411
1422
1594
1909
2025
2003
1969
2043
2100
2090
2070
2078
2110
2131
2141
2149
2168
2181
2204
2220
2234
2264
2290
2312
2350
2376
2413
2447
2495
2527
2560
2585
2593
2613
2612
2611
2600
2577
2540
2488
2416
2333
2249
2166
2104
2047
1991
1952
1914
1874
1869
1852
1845
1837
1831
1834
1835
1846
1843
1826
1838
1835
1841
1853
1852
1851
1859
1868
1865
1875
1877
1869
1876
1880
1871
1879
1890
1890
1895
1896
1895
1886
1904
1903
1900
1897
1894
1891
1899
1904
1897
1890
1888
1882
1884
1894
1882
1883
1875
1873
1881
1871
1872
1851
1838
1845
1840
1838
1841
1823
1816
1814
1814
1819
1807
1812
1818
1831
1835
1838
1837
1836
1886
1907
1917
1927
1904
1879
1861
1848
1822
1811
1800
1779
1778
1781
1785
1785
1784
1781
1792
1787
1794
1796
1819
1832
1851
1860
1874
1868
1833
1823
1865
1800
1658
1527
1638
2000
2469
3171
4019
4095
4095
3615
1918
972
942
911
1229
1366
1352
1471
1846
1993
1970
1970
2027
2072
2080
2077
2079
2087
2119
2132
2138
2173
2188
2197
2222
2247
2262
2309
2333
2359
2398
2430
2469
2494
2540
2571
2597
2619
2626
2629
2641
2630
2610
2557
2499
2434
2350
2274
2188
2102
2046
1990
1948
1917
1889
1858
1855
1836
1831
1838
1829
1844
1836
1839
1830
1829
1848
1844
1851
1854
1854
1854
1869
1876
1877
1890
1894
1899
1900
1921
1921
1924
1933
1930
1933
1938
1937
1931
1937
1935
1938
1927
1934
1920
1925
1922
1922
1912
1916
1924
1910
1919
1910
1910
1913
1922
1932
1917
1925
1924
1924
1949
1989
2006
2019
2019
1994
1989
1972
1945
1935
1913
1901
1895
1906
1894
1901
1899
1896
1890
1910
1910
1900
1923
1926
1932
1937
1953
1946
1911
1902
1913
1918
1814
1691
1646
1887
2256
2782
3566
4095
4095
3914
2787
1311
1031
953
1077
1307
1338
1366
1602
1943
2027
2025
2057
2129
2117
2128
2147
2145
2158
2198
2217
2225
2248
2268
2289
2312
2341
2363
2391
2431
2457
2507
2543
2582
2623
2659
2676
2691
2697
2698
2693
2692
2660
2616
2568
2478
2392
2317
2226
2153
2094
2025
1982
1953
1924
1905
1884
1874
1862
1868
1871
1866
1861
1863
1859
1860
1875
1863
1878
1889
1889
1901
1903
1918
1923
1934
1942
1943
1953
1960
1964
1966
1971
1972
1964
1966
1957
1962
1949
1946
1943
1928
1938
1934
1930
1941
1944
1947
1948
1948
1936
1946
1934
1936
1929
1919
1922
1920
1937
1943
1945
1951
1954
1971
2014
2046
2074
2085
2073
2058
2052
2042
2025
2012
1994
1980
1981
1982
1988
1993
1996
1997
1994
1993
1994
2023
2020
2036
2026
2035
2032
2006
1975
2001
2008
1891
1746
1705
1969
2365
2934
3710
4095
4095
3983
2763
1275
1061
998
1178
1436
1460
1493
1782
2068
2087
2074
2115
2186
2200
2209
2199
2211
2238
2258
2270
2276
2288
2302
2312
2339
2364
2389
2423
2448
2475
2519
2552
2592
2632
2663
2697
2709
2726
2730
2724
2723
2702
2666
2609
2531
2459
2371
2301
2220
2153
2088
2047
2014
1984
1962
1949
1941
1922
1928
1922
1924
1933
1919
1923
1919
1933
1942
1935
1943
1945
1960
1969
1978
1979
1983
1996
1991
1995
2002
1997
2000
1999
1988
1988
1992
2001
1996
1992
1988
1987
1981
1992
1986
1982
1979
1975
1979
1980
1985
1987
1985
1984
1977
1972
1971
1959
1965
1960
1957
1959
1958
1963
1954
1955
1959
1954
1968
1965
1970
1962
1991
2024
2040
2060
2048
2035
2005
2012
1977
1965
1945
1934
1926
1921
1924
1917
1929
1924
1931
1925
1915
1928
1945
1941
1952
1943
1956
1945
1917
1877
1912
1884
1736
1579
1611
1972
2426
3058
3869
4095
4095
3741
2211
958
912
866
1149
1389
1396
1507
1847
2012
1994
1953
2013
2081
2080
2067
2062
2088
2116
2129
2128
2151
2165
2189
2203
2227
2240
2262
2296
2322
2359
2403
2438
2478
2514
2546
2558
2568
2581
2579
2582
2583
2549
2516
2467
2388
2311
2230
2146
2068
2028
1961
1913
1884
1853
1829
1824
1822
1813
1816
1816
1805
1799
1814
1803
1805
1804
1812
1813
1821
1832
1814
1818
1832
1825
1825
1829
1814
1818
1832
1835
1832
1830
1833
1825
1826
1818
1811
1808
1811
1817
1803
1799
1801
1800
1802
1804
1799
1785
1784
1786
1776
1781
1774
1772
1763
1764
1764
1754
1762
1749
1757
1750
1754
1742
1751
1761
1765
1775
1768
1765
1781
1833
1847
1868
1879
1861
1851
1852
1831
1816
1803
1789
1774
1777
1781
1787
1790
1789
1791
1792
1808
1803
1827
1833
1839
1842
1860
1846
1813
1795
1824
1826
1701
1566
1531
1803
2198
2774
3579
4095
4095
3885
2619
1141
935
861
1051
1298
1328
1364
1640
1931
1956
1935
1974
2054
2061
2068
2071
2073
2094
2127
2139
2155
2169
2198
2216
2238
2267
2292
2324
2353
2386
2417
2457
2497
2530
2557
2584
2600
2611
2625
2616
2605
2592
2559
2503
2437
2353
2263
2185
2112
2035
1982
1942
1898
1879
1865
1843
1828
1826
1808
1806
1811
1809
1803
1805
1807
1796
1816
1824
1828
1830
1831
1827
1841
1855
1864
1873
1875
1884
1899
1911
1917
1917
1909
1908
1919
1922
1924
1925
1911
1913
1910
1902
1904
1901
1909
1915
1912
1911
1902
1910
1906
1907
1906
1896
1913
1917
1911
1920
1914
1932
1977
1992
2013
2012
1997
1976
1965
1940
1928
1913
1907
1891
1882
1898
1896
1908
1907
1899
1884
1898
1908
1924
1923
1927
1928
1934
1947
1911
1892
1916
1918
1777
1673
1661
1926
2313
2864
3644
4095
4095
3823
2574
1212
1020
935
1105
1328
1345
1387
1655
1960
2015
2015
2066
2123
2118
2140
2142
2143
2163
2195
2207
2227
2239
2257
2284
2312
2339
2364
2394
2430
2463
2508
2554
2594
2636
2661
2682
2698
2709
2716
2716
2690
2663
2624
2564
2489
2397
2322
2235
2159
2104
2037
1989
1964
1937
1923
1912
1901
1892
1887
1878
1882
1871
1880
1875
1875
1881
1885
1902
1915
1921
1923
1925
1934
1945
1964
1965
1970
1972
1971
1990
1981
1981
1978
1968
1971
1964
1956
1961
1959
1961
1968
1948
1950
1955
1949
1952
1957
1952
1964
1957
1961
1952
1945
1946
1947
1945
1947
1944
1937
1936
1930
1947
1954
1976
1981
1986
1981
1995
2041
2059
2076
2077
2060
2046
2042
2019
1998
1971
1965
1941
1945
1949
1943
1957
1956
1959
1959
1952
1953
1970
1981
1988
1998
1993
2006
1986
1945
1952
1978
1884
1745
1653
1858
2243
2765
3497
4095
4095
4085
3183
1516
1032
1006
1085
1393
1463
1472
1699
2032
2096
2078
2087
2159
2183
2189
2178
2194
2216
2241
2243
2257
2265
2281
2307
2324
2341
2367
2391
2410
2458
2491
2527
2572
2612
2644
2672
2695
2705
2717
2715
2705
2685
2661
2623
2553
2473
2393
2313
2237
2173
2113
2047
2018
1988
1961
1944
1941
1918
1918
1925
1912
1917
1928
1925
1922
1927
1922
1922
1931
1936
1939
1946
1948
1950
1954
1959
1961
1961
1967
1964
1972
1977
1970
1977
1976
1976
1966
1967
1963
1952
1971
1958
1957
1954
1956
1948
1942
1938
1930
1940
1939
1945
1943
1937
1940
1937
1933
1934
1936
1934
1937
1936
1931
1928
1938
1940
1942
1942
1937
1934
1943
1945
1944
1945
1949
1950
1956
1952
1957
1967
1962
1970
1963
1967
1994
2025
2048
2051
2046
2021
2010
1985
1970
1960
1930
1922
1922
1914
1917
1932
1938
1927
1937
1929
1917
1934
1949
1955
1961
1970
1982
1976
1951
1901
1930
1949
1820
1668
1615
1887
2317
2892
3699
4095
4095
4002
2759
1218
1000
943
1133
1409
1437
1484
1781
2038
2045
2014
2043
2118
2119
2113
2094
2113
2148
2163
2174
2184
2200
2216
2226
2253
2267
2294
2324
2346
2387
2417
2452
2491
2513
2550
2567
2575
2595
2582
2586
2577
2556
2539
2498
2433
2367
2281
2203
2132
2074
2015
1966
1924
1888
1863
1854
1835
1822
1823
1806
1809
1811
1804
1811
1811
1813
1816
1811
1826
1831
1838
1850
1842
1845
1846
1855
1856
1860
1867
1860
1855
1859
1849
1851
1857
1852
1851
1850
1849
1844
1847
1847
1844
1850
1847
1845
1845
1847
1840
1843
1841
1833
1839
1844
1840
1833
1836
1830
1827
1839
1828
1827
1830
1843
1838
1847
1839
1840
1843
1850
1859
1853
1873
1872
1875
1873
1881
1885
1928
1963
1973
1983
1958
1940
1923
1910
1892
1872
1862
1846
1843
1851
1850
1862
1855
1857
1855
1851
1852
1862
1878
1886
1888
1881
1907
1893
1856
1839
1878
1833
1688
1540
1612
1976
2444
3098
3932
4095
4095
3566
1913
902
896
886
1218
1398
1410
1563
1897
2012
1975
1961
2023
2082
2088
2052
2064
2095
2115
2129
2128
2152
2157
2177
2189
2208
2229
2269
2291
2320
2356
2381
2414
2456
2484
2504
2536
2548
2551
2552
2553
2533
2520
2494
2433
2362
2288
2204
2135
2084
2009
1966
1915
1882
1853
1844
1831
1818
1821
1820
1813
1824
1827
1815
1822
1819
1817
1824
1836
1826
1839
1830
1845
1849
1856
1862
1849
1860
1854
1857
1855
