Truong Nguyen Trung,Hieu,1491,10/15/2019,9:44:13 AM,10/15/2019,10:00:39 AM
1150
1958
2344
1168
2785
1418
1756
3470
735
3554
1344
2355
2478
1221
3045
1625
1517
2940
633
3399
1076
2588
2693
1331
2898
1370
1467
2567
331
3334
1145
2877
2646
1386
2961
1239
1628
2573
247
3124
522
2166
1885
851
2838
1423
1452
2499
675
3392
837
2801
2386
1601
3063
1415
2244
3008
1029
3709
898
2780
2168
1685
3247
1517
2683
3218
1097
3825
1042
3126
2284
1591
3460
1838
2331
2454
793
3507
559
2743
2095
1864
3079
1068
2139
2349
830
3279
360
2961
1735
1402
2822
1134
2604
2510
1013
3633
601
3084
1719
1593
2911
1126
2544
2279
798
3129
299
3140
1599
1654
2898
963
2562
2189
1016
3268
281
2769
1061
1748
3016
940
2118
1761
1061
3294
572
3638
1754
2076
2966
1297
2806
2231
1722
3914
1034
3833
1670
2126
2609
906
2880
2150
1326
3386
795
3772
1407
1971
2688
1168
2685
1767
1404
3476
835
3515
1121
2160
2370
690
2386
1528
1376
2969
370
3507
1055
2192
2271
982
2832
1714
1830
3245
486
3541
1113
2683
2762
1292
2864
1725
1756
3098
777
3974
1145
2491
2531
1323
2817
1675
1895
3019
1087
3770
725
2664
2111
1042
2895
1544
1877
2588
543
3644
819
2888
2363
1457
2940
1271
1895
2754
722
3460
627
2777
1628
1045
2867
1194
1948
2483
759
3885
801
3119
2331
1226
2370
1281
2352
2714
1137
3654
457
2958
1691
1168
2454
1105
2515
2859
1557
4050
882
3287
1397
1281
2491
806
2268
2449
1504
4019
596
2817
499
533
1961
662
2405
2596
1798
3995
756
3045
394
1045
2594
1139
2874
3011
2339
4048
877
3455
512
861
1567
155
2578
2699
2754
4095
1882
4001
530
932
1318
0
2418
2867
3268
4095
2221
4095
483
184
457
0
2279
2743
3552
4095
2630
4074
47
499
630
0
2000
1950
2874
4095
2150
4095
2024
2638
2987
2486
3575
751
0
0
0
1008
927
4095
4095
3628
3898
1202
113
473
0
2265
1383
3998
4095
3205
3977
1612
1087
1515
0
3171
1544
4092
3827
2483
3389
1412
1551
1916
16
3053
1076
3297
2937
1998
3090
1268
1743
2342
722
3428
866
2717
2137
1530
2843
1313
2105
2307
557
3276
599
2321
1748
1439
2688
1320
2268
2420
1126
3596
893
3027
2145
1835
2940
1215
2105
2305
1011
3565
1013
3027
1838
1572
2801
1418
2302
2234
1271
2846
312
3486
2179
1714
2706
1278
2462
2192
1179
3289
654
2809
1538
2040
3163
1680
2830
2139
1205
3260
449
2819
1425
1748
2578
1110
2533
2058
1436
3229
517
3011
1328
1746
2730
1502
2811
2055
1452
3087
517
3029
1473
2108
2604
1208
2643
1872
1362
3006
872
3410
1473
2239
2586
1218
2693
1730
1523
3053
767
3344
1481
2268
2494
1221
2717
1864
1929
3478
1082
3284
1305
2260
2349
1260
2735
1654
1775
3027
914
3410
1271
2181
2158
1365
2706
1580
2126
2961
908
3510
1089
2229
2137
1231
2649
1347
1646
2357
423
2987
1013
2783
2554
1580
2861
1604
2063
2712
1089
3486
935
2318
1992
1478
2882
1515
2155
2546
717
3134
1005
2638
2019
1538
2885
1580
2384
2478
963
3260
879
2746
2223
1864
2825
1103
2223
2678
979
2885
767
2937
2124
1796
2885
1465
2171
1785
1187
3641
1095
3003
1811
1651
2646
1150
2273
1985
1173
3242
919
2974
1719
1948
2964
1397
2612
2045
1113
3061
735
2919
1664
1916
2672
1150
2617
1943
1142
3011
777
3105
1890
2318
2851
1263
2675
1935
1675
3418
866
2993
1326
1764
2664
1349
2874
2202
1586
3003
953
3218
1334
1830
2258
984
2806
1922
1782
2969
719
3252
1383
2040
2657
1383
2785
1612
1743
2916
785
3224
1286
2213
2405
1134
2877
1601
1772
2922
877
3171
1218
2260
2365
1124
2874
1612
1937
2846
971
3234
982
2255
2384
1221
3014
1578
2011
2657
693
2966
906
2402
2399
1310
2754
1189
2069
2685
1071
3426
1252
2733
2352
1315
2893
1155
2061
2394
984
3334
1166
2885
2336
1499
3271
1215
2055
2397
903
3210
900
2420
2027
1481
3100
1341
2486
2573
1121
3155
945
2840
2113
1433
2985
1160
2520
2523
1318
3441
1008
2607
1714
1265
2738
882
2347
2111
1281
3434
1021
3182
2142
1565
3242
1124
2197
1998
1368
3339
1040
3084
2074
1704
2916
1163
2775
2045
1150
2972
924
3029
1843
1895
2977
874
2441
1861
1517
3100
790
2958
1557
1646
2646
953
3116
1998
1470
3006
620
2916
1418
1565
2819
987
2811
1922
1777
3237
971
3027
1478
1835
2667
835
2720
1559
1441
2735
861
3218
1683
2192
2864
982
2748
1593
1882
3032
1113
3279
1394
2045
2544
814
2982
1617
1914
3032
1221
3460
1441
2124
2662
1000
2961
1523
1872
2601
693
2877
1100
2037
2591
1187
2948
1394
1958
2672
1255
3397
1341
2258
2263
948
2916
1460
2578
2916
1110
3187
1147
2184
2103
848
2856
1323
2176
2441
1121
3132
971
2363
2622
1544
3113
1257
2244
2373
1158
3103
1286
2840
2481
1580
3292
1334
2339
2097
1068
2937
874
2552
2271
1554
3208
1139
2273
1932
1097
2966
1021
2804
2111
1391
2966
1208
2706
2210
1588
3300
1008
2727
1895
1226
2817
1066
2580
1943
1554
3056
1076
2748
1604
1520
3035
1074
2748
2071
1704
3087
1021
2995
1964
1628
2775
992
2861
1971
1672
2809
709
2662
1462
1538
2872
1260
3056
1869
1856
3037
1045
2872
1362
1544
2651
945
2919
1759
1880
2793
885
2979
1562
1937
2861
1113
2953
1449
1824
2874
1050
2930
1365
2011
2683
837
2769
1520
2242
2822
1126
3260
1181
1719
2536
1019
3158
1544
2027
2867
1113
3229
1483
2076
2607
1163
3132
1473
2250
2512
1040
3376
1467
2113
2339
919
2851
1103
2365
2759
1257
3250
1150
2279
2696
1331
3368
1491
2402
2284
948
2859
822
2197
2307
1152
3210
1399
2712
2439
1223
3200
1244
2552
2276
1173
3077
1058
2546
2202
1215
3192
1008
2415
2187
1260
3016
680
2357
2237
1481
3266
1100
2759
2363
1315
3061
1076
2588
1856
1402
2964
814
2683
2134
1517
3216
1016
2893
1998
1310
3355
1192
2326
1722
1407
3140
1310
2995
1859
1549
2748
494
2454
1733
1557
3119
1016
3045
1956
1717
3024
1013
3006
2048
1641
3048
1116
2961
1767
1759
2706
893
2880
1609
1635
2977
1108
3126
1651
1861
2643
727
2937
1722
1856
2935
924
2937
1509
1927
2546
942
3281
1817
1932
2806
1029
3024
1292
1948
2704
1032
3061
1614
1969
2811
1061
3113
1339
2137
2814
998
2662
1202
1882
2580
1034
3331
1481
2252
2612
1000
2911
1441
2139
2596
1142
3376
1305
2273
2510
1005
3032
1441
2263
2720
1118
3174
1236
2265
2376
1145
2825
1047
2008
2368
1171
3176
1124
2447
2265
1355
3289
1389
2454
2486
1021
3040
1079
2657
2510
1370
2916
1129
2334
2252
1103
3098
1005
2504
2029
1318
3315
1449
2594
2321
1108
2872
814
2544
1995
1418
2987
1066
2231
2008
1475
3279
1137
2840
1848
1525
2990
1189
2867
2239
1460
3294
816
3000
2376
1244
2418
1079
2567
2016
1730
3197
764
2817
1706
1633
3042
1234
2651
1914
1583
3071
911
3011
1743
1704
2733
1082
2798
1906
1693
3134
1076
3040
1299
1675
2678
935
2817
1901
1761
2974
895
2985
1197
1948
2764
1100
2864
1759
1793
2872
927
3111
1192
2103
2895
1239
2974
1651
1817
2856
811
3150
1281
1898
2423
1152
2987
1717
2145
2859
790
3300
1428
2328
2567
1145
2830
1362
1864
2596
853
3360
1221
2336
2457
1145
2927
1457
2226
2958
1142
3415
1024
2079
2111
1276
3126
1507
2145
2504
853
3092
725
2523
2544
1352
2909
1297
2302
2662
979
3452
1173
2531
2137
1255
3042
1423
2226
2360
937
3155
507
2160
1974
1494
3040
1446
2599
2622
1221
3347
877
2990
2142
1391
2951
1454
2693
2376
1121
3350
646
2604
1948
1570
2822
1016
2328
2100
1019
3342
879
2856
1840
1544
2869
1294
2557
2142
1307
3350
753
2835
1638
1625
2746
1055
2730
2384
1494
3447
940
2998
1551
1643
2743
1294
2672
1872
1373
3105
512
3119
1803
2192
2935
1063
2675
1979
1383
3063
591
3116
1538
1819
2701
1368
2806
1916
1685
3323
683
2935
1378
2066
2562
1239
2759
1746
1504
2617
591
3441
1271
2045
2675
1496
2977
1693
1901
3150
690
3237
1105
2126
2536
1124
2720
1761
1756
2617
509
3310
1226
2260
2481
1423
2922
1662
1956
3011
919
3368
1305
2596
2347
1278
2825
1441
1869
2822
793
3216
1013
2447
2158
1530
2945
1481
2095
2633
672
3266
1008
2544
2166
1559
3189
1677
2189
2809
956
3147
882
2599
2063
1557
2693
1095
2061
2575
990
3279
890
2801
2100
1620
2806
1452
2355
2195
898
3420
719
2638
1782
1483
2903
1412
2499
2622
977
3137
848
2777
1769
1764
2811
1423
2420
2118
1328
3604
987
3024
1819
1958
2717
1192
2431
1990
1218
3168
656
3074
1596
1769
2888
1273
2738
2184
1000
3021
756
3108
1696
2163
2754
1187
2567
1864
1092
2961
798
3300
1541
2082
2688
1394
2832
1919
1470
3205
811
3268
1475
2229
2481
1026
2617
1830
1664
2985
478
3014
1213
2247
2591
1313
2709
1512
1614
2990
620
3260
1357
2559
2583
1397
2688
1431
1911
3171
1116
3722
1213
2205
2090
1257
2546
1105
1911
2909
743
3486
1168
2649
2294
1365
2935
1433
1971
2864
748
3360
921
2483
2210
1284
3179
1696
1764
2727
1055
3539
1055
2596
2069
1134
2819
1533
1801
2357
727
3147
816
2772
2263
1743
2987
1362
2328
2730
1053
3478
811
2701
1948
1504
2764
1239
2559
2767
979
3378
780
2759
1730
1433
3113
1494
2328
2439
953
3221
675
2916
1914
1583
2927
1276
2097
2195
1221
3415
824
3019
1680
1659
2654
1050
2578
2407
1355
3602
919
3153
1643
1670
2693
1050
2457
2142
1176
3331
814
3208
1670
1882
2612
908
2457
2013
1215
3158
606
3192
1588
1943
2567
958
2580
1977
1357
3342
893
3512
1536
2066
3368
1530
2326
1916
1651
3140
685
3371
1415
2032
2504
1055
2741
1811
1334
2882
567
3318
1299
2218
2746
1242
2599
1612
1609
3140
753
3289
1210
2276
2499
1208
3000
1932
1796
2974
858
3313
1021
2310
2032
1021
2864
1475
1827
2998
777
3455
1273
2578
1971
1118
3210
1680
1958
3121
1082
3625
995
2363
2313
1250
2499
1352
2040
2775
803
3300
803
2649
2502
1381
2630
1488
2000
2517
1005
3444
864
2809
2129
1412
3027
1659
2373
2620
861
3305
816
2814
1782
1452
3155
1441
1958
2321
1042
3439
816
2895
2155
1811
2633
1137
2252
2313
816
3035
633
3066
2250
2147
3297
1701
2502
2082
767
2827
113
2701
1924
2019
3119
1651
2636
2055
1000
3074
336
2717
1336
1517
2633
1029
2315
2331
1819
3641
268
2796
1420
709
1738
1399
3255
3224
2880
4095
1147
2389
0
0
1927
1559
3856
3948
3822
4095
1499
3137
0
0
1171
462
2961
3368
3226
3898
1278
3121
34
1491
2420
1247
2517
339
0
1903
249
4095
3575
4095
3885
1617
1688
0
0
696
601
4095
4095
4095
4095
1845
0
0
0
0
0
4095
4095
4095
4095
990
0
0
0
0
780
4095
4095
4095
2118
1092
3357
2426
4095
4095
1901
2874
0
357
822
1113
4095
3956
4095
4095
1814
2570
0
0
0
341
4095
4095
4095
4095
1738
2636
0
0
0
709
4095
3956
4095
4095
1470
3210
0
179
0
1063
3728
2491
4095
3741
1252
3869
0
2607
1717
1116
2853
1341
2675
2132
0
3056
0
3386
2533
2394
3827
1701
2160
1625
683
3693
0
3292
2625
2646
2851
499
2420
1478
0
3515
81
1683
0
0
1470
2625
4095
3953
2352
4053
1005
4095
1659
3339
4095
1544
2216
2016
1630
2226
0
2754
1578
2097
2633
738
2877
2452
1200
2570
66
4077
1202
2436
4095
1604
2751
1475
1181
4074
483
3271
1116
1664
1966
622
2809
1439
1189
3552
286
3654
1751
2594
2725
1475
3082
1016
533
2738
383
3665
1273
2685
2861
1341
2817
1286
1412
2814
612
4095
1449
3279
3785
1483
2276
730
1166
2625
491
4095
1712
3040
2011
58
2021
1061
1974
3137
764
4095
1349
2615
1877
627
3111
819
1097
3029
698
3407
457
1822
1538
1037
2998
1612
2496
3552
1520
4095
1139
3100
2058
609
2468
1420
2399
3192
1533
4077
585
2237
1087
386
1966
900
3082
3890
1856
4095
1131
2313
515
900
3260
1709
3234
3567
1630
3725
339
3100
2265
2074
3027
809
2011
914
0
1845
0
3625
4095
4095
4095
1982
2943
480
0
2021
307
3659
2011
3040
4095
2420
1979
790
333
3289
580
3363
499
470
2714
1667
3213
3489
3491
4037
0
2801
1593
2058
2460
753
2523
1378
864
2672
0
2504
1347
2126
1515
0
4095
4022
2523
3890
1412
2720
0
207
1961
1691
4095
2932
2292
3567
0
2885
1685
3518
3686
1572
2846
698
570
2357
853
4095
1633
2893
3284
893
1273
0
1289
3557
1147
4095
1775
3339
1754
0
3129
1339
1278
2281
549
4095
1649
2512
2349
966
2176
0
1664
3557
1662
4095
2342
3137
2696
1066
2494
302
1145
1869
0
3003
1055
4095
3756
1838
3234
449
840
1504
299
3625
1061
3140
2420
1302
3142
977
2281
2502
811
3376
444
2880
2307
1336
2943
543
2121
2990
1706
3872
942
2268
798
869
3896
2712
4095
3326
1068
2769
0
1964
1158
1499
4040
2013
3347
2300
893
2990
0
2040
1546
1465
2940
1533
3801
2344
641
2977
578
2948
2116
2260
3132
609
2609
2008
1323
2704
0
2601
998
601
2454
1181
3809
2877
2160
3922
759
2357
798
1580
2588
312
3174
2423
1809
3683
1431
3659
1124
845
2701
830
1843
1242
2389
3497
614
3373
1843
2609
3575
1260
3426
2360
2071
2580
0
2819
1326
2276
3116
1229
3179
1473
1625
3019
948
3504
914
1478
2586
1383
4022
1801
1402
2420
449
3560
1675
2373
3071
950
1932
0
1011
2454
1299
4087
1992
3510
3583
1365
3321
1457
2376
3061
816
3205
843
2066
2399
604
2751
1173
1775
2147
914
3586
1423
3155
2699
890
3237
1365
2678
3192
1221
2641
365
2019
1160
722
3318
659
1654
1806
1344
3977
851
2588
2481
1575
3504
1229
2825
1890
402
3124
1032
3247
2617
1722
3539
1176
3155
2751
1242
3140
622
2284
1092
688
2877
900
2764
1901
1166
3405
1139
3289
1893
1284
2817
415
2601
1998
1788
3491
596
2817
1541
1502
3103
528
2580
1767
1494
2714
118
2969
1428
1008
2741
588
2699
1793
2003
3268
601
3368
1932
1523
2709
1150
3321
1276
1677
3313
730
3100
1097
1250
2809
1221
3691
2063
2397
3297
732
3053
942
1517
2570
732
3612
1935
2192
2914
837
3350
1145
2069
3066
614
2559
1121
1966
2323
780
3053
612
2250
2727
790
3331
1121
2331
3234
1572
3426
1184
2990
2536
567
3625
1273
2360
2741
1250
3938
1347
2667
2880
1134
3536
1042
2405
2552
806
3651
1378
2389
2147
438
2538
365
2265
1982
625
3659
1061
2076
2260
1596
3712
832
2381
2124
961
2935
210
2520
2536
1341
3520
1034
3171
2468
1310
3749
927
2704
2357
1299
3439
900
3289
2523
1105
3176
790
2657
1572
662
3360
924
3126
2137
1160
2982
13
2147
1722
1488
3738
1134
3360
1971
1533
3234
218
2633
1853
1502
3481
1166
3678
1756
1562
3384
320
2785
1901
1843
3896
1355
3980
2132
1386
2596
186
2940
1596
1299
2998
438
3098
1126
1394
2712
239
2888
1378
1562
3119
494
2914
1281
1895
2727
588
3586
1974
2103
2974
520
3313
1250
2100
3210
1013
3439
1318
1712
2759
126
2798
738
1575
2675
646
3058
1173
1725
2882
864
2956
438
1895
2452
620
3321
924
1614
2549
911
3780
1268
2554
2683
843
3594
1635
2675
2885
958
3917
1292
2780
2995
1000
3061
851
2397
2972
1176
3675
1423
2951
2580
669
2966
1076
2685
2958
1491
3896
982
2389
1704
885
3455
945
2675
2809
1331
3562
725
2373
1163
536
3302
793
2504
2289
890
3245
452
2706
2195
1446
3481
992
2633
2045
557
2882
425
2712
1814
1352
3581
1336
2877
2124
1271
3586
278
2859
2649
900
1856
465
2746
2053
1491
3688
1026
3142
1389
1331
3389
1273
3273
2252
1806
3704
667
3329
1903
1460
2985
1050
3058
2011
1654
3226
546
3216
1376
1599
3079
845
2657
1425
1226
2552
239
3415
2055
3006
3819
1097
2701
848
683
2436
507
3520
1754
2796
3483
1008
2998
1446
1591
2982
822
3851
1793
2481
2814
780
2846
1205
1851
3008
843
3434
612
1751
2575
1105
3287
1570
2394
3384
1129
4095
1735
2468
2357
604
2565
974
2076
2977
945
3665
851
2562
2654
1407
3486
1231
2134
2512
257
3638
1297
2636
2399
1139
3074
1147
2055
2373
866
3544
853
3355
2612
1095
3069
809
1775
2084
501
3263
315
2489
2242
1362
3242
1347
2617
2525
843
3342
102
2465
1906
1273
3434
1593
3239
2964
979
3552
0
1956
1670
1609
3798
1853
2953
2523
969
3205
108
2790
1672
1370
3402
1628
3252
2895
1397
3210
144
2872
1612
1294
2974
1360
3084
2231
1042
3651
417
2741
1544
1845
3147
966
2504
1819
1050
3326
281
3302
1782
1832
2901
856
2596
2079
1523
3565
769
3657
1680
2019
2853
515
2069
1278
1055
3465
1158
4095
1782
1701
2050
55
2137
1536
1722
3906
1160
3830
1097
1544
2237
475
2657
1656
1895
4095
1953
3959
1313
1664
1365
63
2885
1677
1302
2538
0
3525
1205
2536
3347
1801
3378
1945
2034
2769
0
2743
386
2218
3019
2103
4095
2213
2213
3195
0
2594
507
2349
2580
1845
3882
1754
2029
2811
0
3113
580
2315
2691
1880
3636
1756
2011
2570
0
3035
323
2717
2993
2016
3578
1801
2538
2856
0
2607
268
2759
2378
1761
3557
1570
1586
1415
95
3822
748
3061
2549
1964
3528
1588
2468
2478
218
3268
512
3092
2360
2042
3604
1349
2237
2688
1163
3930
945
2969
1302
795
1974
486
2544
3329
2174
4095
916
2843
727
554
1937
410
2200
2462
1562
3953
759
3124
1331
1460
2365
654
2557
2279
1349
3599
396
3250
1389
1465
2512
1032
2544
1588
748
3176
441
3623
2076
2809
3192
1179
2297
501
0
2195
184
3953
2286
3494
3835
1790
2468
0
0
2389
21
3712
2234
3636
3567
1244
2872
1717
1780
3665
764
3646
895
1733
1772
373
2885
2528
2809
3951
903
3347
186
1286
1764
1131
3134
2071
2536
3512
869
3625
599
1929
1704
732
3323
2168
2271
3399
835
3239
525
2328
2045
935
2872
1523
2084
2943
774
3707
727
2402
2032
1242
2853
1436
2575
3016
764
3588
551
2685
1916
1197
3281
1646
2436
2906
858
3313
0
2181
1670
1722
3670
2008
3197
2943
614
3378
152
2418
1625
1404
2919
1155
2885
3061
1142
3746
575
2851
1457
1320
2691
620
2452
2667
1179
3846
683
3583
2003
1473
3457
1643
2454
2155
940
3431
242
2948
1394
1630
3069
798
2242
2090
885
3378
323
3200
1410
1612
2738
740
2523
2061
1121
3751
1071
4095
2496
2344
3006
410
1822
1362
866
3554
769
3888
1908
2234
2888
465
1903
1079
690
3323
835
4095
1824
2370
2903
711
2567
1549
1053
3310
494
3591
1562
2877
3108
604
2573
2011
1730
3310
249
3305
672
1956
2486
1019
3350
1845
1460
3420
578
3581
546
1536
2192
1302
3746
2108
1583
3846
1651
3909
688
1992
1801
541
2268
945
2008
3014
0
3350
1630
3129
1507
58
2546
803
1517
3368
1649
4095
1005
2885
2748
0
1265
1882
3399
3323
911
4037
84
1691
2570
2890
4095
1444
1654
2181
123
3473
643
2704
2111
1685
3174
1257
2368
2864
651
2840
0
3247
2100
680
2969
1431
1859
1961
1029
4095
677
3140
1622
1499
3544
1118
2087
2370
381
2462
722
4095
2305
1969
3675
1431
3250
2129
21
4095
155
1244
869
1880
3308
1880
3544
3208
1341
2895
0
2685
837
1966
3344
751
2302
2428
1872
3924
441
3554
1712
1578
2840
2145
3415
1410
746
2706
0
3649
2328
2124
2882
1003
2331
1856
1546
3368
622
3780
1344
2712
3126
399
2454
1764
809
3098
1084
3594
1121
2798
2546
662
2953
1381
1355
3444
643
4095
1084
1499
2641
1252
2956
1709
1895
3817
767
3515
824
2310
2428
1076
2830
1906
3134
3945
554
3953
396
1436
1599
501
3504
3105
4032
4095
809
3578
0
0
887
798
3798
3111
3625
3861
570
3037
0
987
1588
1740
3987
2339
2783
2979
305
3000
0
2659
2258
1449
3352
559
916
2470
194
3163
877
3061
2166
1612
3520
2407
2956
2927
1158
3460
1047
4095
2294
1092
2738
291
824
1827
788
3817
1263
3079
2265
2189
2489
257
1076
1488
1016
3641
1754
4095
2817
1139
1814
541
1872
1727
1381
4095
1097
3394
1974
1622
2391
1011
2762
2378
1483
3704
336
2630
1268
1562
2166
688
2612
1643
885
4095
1465
3287
2048
2328
2363
937
2691
2082
1271
3100
423
3095
1244
2171
3155
1215
2840
2541
1428
3024
1055
3893
1328
1651
2292
588
2042
1134
1520
3995
945
3662
1147
1908
3344
1460
2609
2011
1439
2541
5
3189
1402
2200
2835
1932
3602
2234
1583
2706
0
2134
882
2347
2754
2893
4095
1943
1397
1712
0
1420
496
3423
4095
3263
4095
2557
1082
530
0
1488
323
3053
4095
4095
4095
2554
1840
982
0
1158
368
3292
3806
3415
4095
2048
1998
1830
0
3431
1625
1851
748
234
1297
410
2331
4095
3830
4095
1929
2292
992
0
520
620
2042
2827
3208
4095
1793
2496
1226
480
1538
690
2746
4095
2998
3691
1567
2643
824
242
1349
845
2221
2436
2433
4019
1570
3000
1281
1163
2192
1013
2174
2048
1822
3447
1189
2835
1559
1365
2200
1286
2798
2859
2229
3066
740
2426
1105
924
1656
1116
2363
2255
2712
3683
1265
2856
1320
1751
2468
1617
2804
1633
1184
2667
1076
3063
2066
2762
2985
1389
2368
1336
1147
2441
966
2943
1276
1982
2418
1412
2872
2116
2053
2916
963
2678
1257
1958
2179
1433
3140
2426
2517
2898
898
2641
845
1617
1801
1292
3132
2074
2258
2783
948
2588
890
2268
2370
1294
2675
1184
1496
2470
1420
3893
2376
3410
2861
1202
1880
0
144
1806
1397
3922
2565
3759
3024
1562
2481
942
1761
2271
1092
2940
987
2260
1861
1089
2533
1499
2649
2683
1331
3129
1145
2457
2250
1638
2727
1205
2402
2554
1625
3300
1134
2478
1738
1213
2741
1310
2407
2454
1433
2788
672
2160
1570
1368
2916
1672
2804
2237
1110
2654
806
2504
1777
1617
3242
1654
2491
2118
1502
3066
1053
2402
1864
1995
2523
1179
3252
2502
1525
2953
942
2389
1551
1903
3121
1481
2617
2042
1706
2972
1181
2995
1830
1814
2783
1265
2683
1777
1334
2775
1158
3069
1838
1845
3003
1525
2483
1767
1864
3074
1297
3056
1851
1992
2567
987
2439
1633
1688
2759
1158
3069
1777
1914
2331
1124
2848
1809
1948
2762
772
2596
1394
2027
2775
1257
2775
1733
1596
2428
1187
3077
1512
2179
2832
1307
2712
1672
1880
2475
1092
2958
1436
2197
2649
1439
3113
1743
1835
2286
835
2683
1276
2302
2751
1596
2930
1320
1835
2189
690
2704
1378
2441
2822
2016
3636
1903
2090
2103
494
2168
835
2305
2864
2003
3150
1446
1793
1880
1097
2885
1407
2772
2394
1439
2817
1265
2544
2517
1457
3218
1105
2284
2000
856
2258
935
2237
2342
1607
3504
1607
2764
2210
1286
2888
1381
2260
2160
1659
3200
1365
2835
2489
2011
2940
1147
2391
1404
473
2321
961
2903
2998
3350
4095
1381
2092
662
0
1449
488
3205
3722
4095
4095
1373
1838
189
0
1061
362
3688
2394
1586
2951
1089
2832
2709
3402
4095
1433
2147
0
0
1152
659
4074
4095
4095
4095
1788
2069
0
0
727
491
4095
4095
4095
4095
1599
2147
0
0
651
457
4048
3659
4040
4095
1410
2187
0
0
1848
1100
3242
1835
2189
2717
837
3869
3103
3620
3851
1021
1932
13
415
1630
832
3735
2880
3833
3612
1126
2218
0
501
1528
767
3914
2951
3717
3418
958
2040
0
701
1454
900
3940
2785
3877
3562
1229
2321
39
1179
1712
819
3520
1998
3048
2798
1336
3339
1454
2832
2748
1187
2998
302
1171
1562
1126
3733
1953
3386
3035
1504
2851
0
1273
1630
987
3552
1817
3399
2772
1278
2657
116
2027
2040
1341
3594
1578
3389
2688
1318
2746
87
1670
1491
1087
3591
1672
3573
2604
1383
3087
352
1625
1423
1357
3599
1662
3473
2318
1425
2433
0
2048
1504
1528
3898
2029
3943
2633
1916
2174
0
1935
1475
1565
3911
2021
4029
2357
1733
2701
5
2292
1835
1194
2032
0
1544
730
2195
4095
3213
4095
2565
1210
1515
0
1609
987
2124
4095
3436
4095
3050
2163
1895
0
675
32
1570
2727
1055
3161
2058
2699
3208
186
1698
572
1265
1273
0
2053
1793
3103
4095
4095
4095
3363
1310
383
0
732
662
1297
3016
3184
4095
2520
2192
2675
1856
2775
1173
1675
1911
407
1979
882
2297
2809
2095
3197
1402
1969
2029
465
2100
1103
2546
2693
2084
3478
1864
2315
2063
714
2100
903
2226
2090
2153
3599
1848
2465
2132
1016
2342
982
2281
1712
1591
2985
1470
2649
2478
1932
3279
1389
2491
1334
851
2394
1286
2738
2775
2195
3415
1462
2423
1410
1407
2843
1415
2260
1565
911
2321
809
2882
3218
3308
3636
1712
2032
735
0
1415
536
3187
3399
3649
3838
1646
1822
81
0
1171
470
3604
4095
4095
4077
1504
1743
0
0
830
438
3536
3851
4095
4095
1473
1373
0
0
717
417
3394
1234
1042
2436
1688
3665
3512
4095
4095
2289
2806
0
39
1223
525
3155
2890
3578
4095
1746
2696
0
743
1680
643
3006
2210
2441
3428
1404
4008
3153
3665
3119
830
1360
0
0
1315
648
4095
2880
2882
2087
824
2814
1709
2171
2906
646
2405
336
1425
1916
1528
4095
4095
4095
4095
1958
307
0
0
0
633
4095
4095
4095
4095
2082
832
0
0
0
1822
4095
4095
4095
4095
1213
685
0
0
499
685
2349
1097
1381
1759
927
2906
102
1530
1893
1714
2769
1315
2061
2575
1649
4095
4095
4095
4095
2019
0
0
0
0
163
4095
4095
4095
4095
2058
11
0
0
0
706
3935
3329
4095
3100
2160
2074
0
339
843
1730
4095
4095
4095
3581
1906
903
0
0
0
1124
3972
3930
4095
2801
1819
2276
1549
3376
3074
2013
2470
0
788
433
1349
2281
1352
2491
1964
1956
3273
1103
2859
1412
1845
2659
2019
3594
2651
2113
3032
118
2168
1265
1599
1903
890
2176
1578
1982
3977
2536
4095
2491
1838
801
0
593
801
1945
4095
3809
4095
1465
1712
1357
263
2386
2181
2323
3035
294
1990
81
1494
1670
297
1788
1320
2252
4095
2966
4095
1328
2790
3504
3279
4095
2405
1334
662
0
520
0
2906
4095
4095
4095
4095
1906
0
0
0
0
2966
4095
4095
4095
2706
1798
1155
0
2649
601
2231
1830
1013
2087
977
2599
4095
2402
4095
1265
2596
1087
131
1675
963
2279
3245
1651
3594
407
2662
1932
1735
2916
1197
2084
2084
108
2617
370
3851
3995
4095
4095
2528
1651
0
0
924
71
3575
3229
3646
4095
1746
2226
1360
583
3575
494
2914
1481
1620
2704
1189
2242
2349
1221
3326
866
3447
1452
1649
2546
1113
3281
4095
3575
4095
617
2100
0
0
0
8
2861
2678
3455
4095
1084
2888
507
1215
2234
1013
3150
3134
2368
3982
1079
3378
1192
2003
2559
1368
3105
2252
1559
3008
284
3111
782
1916
2315
1003
2809
1964
1798
3310
551
3578
1103
2326
2478
1210
2853
1323
1347
3504
753
3814
1664
3137
2452
659
2006
29
0
1998
315
4095
2134
4095
3940
1819
2315
0
0
1691
362
4095
2412
4095
3780
1874
2780
698
659
2013
357
4056
1465
3381
2743
1491
2890
1257
1895
2972
428
3197
480
2465
1895
1646
3260
1580
2208
2696
142
2696
0
2029
1494
1410
3777
3003
3596
3525
1045
3000
0
1651
1066
1373
3462
2166
2811
2683
803
3481
491
3011
2037
1924
3037
1045
2305
2717
1058
3688
882
3226
1570
1299
2142
675
2544
2628
1313
4095
864
3284
1688
1475
2273
567
2103
2195
1252
3987
879
3494
1688
1756
2880
1126
2415
2223
979
3287
239
2909
1355
1977
2678
1231
3145
2570
1194
3339
365
3507
1378
1672
3633
1827
1772
1567
1215
3153
488
3528
1352
2021
2528
843
2541
1995
1465
3447
662
3554
1263
2006
2399
1110
2919
2024
1446
3420
641
3350
1108
2489
2462
953
2993
2006
1452
3103
410
3389
1005
2294
2517
1336
2840
1462
1515
3153
420
3447
916
2549
2386
1171
3247
1987
1714
2998
520
3657
848
2415
2426
1218
2607
1541
2045
3221
835
3830
788
2418
1856
837
2759
1698
2113
3184
1097
3969
740
2651
2048
961
2562
1415
2134
3056
764
3896
648
2706
1985
1063
2654
1494
2218
2919
1129
4095
916
2735
1530
1145
2670
1142
2139
2890
1124
3654
536
2953
1549
1155
2743
1323
2486
2935
1171
3746
654
2916
1294
1376
2893
1205
2478
2846
1252
3777
782
3142
1042
977
2583
1200
2310
2042
588
3021
0
2911
2160
2667
3625
1853
2531
2247
1278
3189
37
3087
1512
2090
2987
1486
2882
2205
1488
4066
1163
3554
1150
1223
1911
601
2234
1940
1520
3966
1113
4095
1814
1659
1932
858
2612
2181
1507
3147
357
3302
1194
2570
2930
814
1903
1150
906
2895
664
4095
1964
2735
2709
963
2158
1068
887
2851
711
4095
1404
2237
2386
1247
2906
2118
2389
3549
614
3696
1037
2562
2510
1087
2468
1071
1431
3090
551
3720
1278
2859
2570
1559
2948
1286
1355
2378
0
3231
748
2901
2554
1746
3373
1772
2097
2930
609
3297
116
2546
2113
1344
3281
1793
2202
2838
656
3701
260
2255
1990
1617
3234
1822
2504
2788
433
3042
0
2575
2174
1633
3040
1572
2355
2426
530
3764
578
2838
1866
1609
2856
1231
2176
2349
866
3956
1055
3953
2504
1643
2460
486
1357
1475
415
4095
1460
3898
2053
1696
2743
1124
2733
2951
1194
3722
0
2024
921
1628
3035
1754
3305
2922
1210
3525
34
2620
1087
1725
2966
1578
2979
2504
1215
3344
0
2956
1034
1767
2922
1507
2969
2591
1546
2888
0
3528
1284
1890
2919
1460
2853
1985
1307
3562
221
3140
1097
2129
2754
1318
2722
1840
1334
3163
247
3678
1239
2195
2594
1265
2888
1885
1549
3242
260
3536
1076
2271
2515
1341
2943
1693
1544
3231
562
3594
1032
2360
2378
1247
3003
1638
1670
3473
344
3171
727
2334
2344
1441
3042
1698
1793
2964
383
3814
945
2664
2431
1271
2819
1593
1985
2990
680
3869
774
2541
2147
1265
2867
1533
2058
3021
801
3749
717
2604
1838
1205
2819
1229
2142
3098
748
3688
672
2720
1958
1313
2880
1365
2058
2570
480
3546
688
2843
1992
1759
3098
1244
2166
2502
328
3302
362
2893
1992
2153
3510
1554
2533
2381
291
3168
496
3184
1982
2234
3704
1593
2525
2318
189
2730
176
3077
1759
1775
2817
1100
2019
1544
735
3539
543
3462
2176
2502
3182
1352
2641
1953
1032
3457
591
3536
1452
1425
2195
732
2265
1748
1817
4095
830
3651
1530
1814
2431
774
2819
2326
1562
3470
549
3255
1061
1872
2573
1029
2874
1788
1512
3599
719
3315
908
1688
2063
580
3082
2565
2244
3686
806
3363
499
1247
1567
559
2948
2063
2615
3927
690
3460
956
2788
3310
1575
3155
1097
911
2496
131
3334
1124
2817
2919
1370
3179
1250
1202
2499
420
3586
1142
2956
2756
1425
3266
1278
1651
2510
483
3817
1061
2840
2441
1226
3171
1124
1929
2798
604
3651
900
2817
2342
1326
2851
759
2373
2932
662
3625
853
2916
2258
1200
3289
1328
2121
2363
614
3470
662
2932
2116
1236
3037
814
2200
2491
982
3767
709
3032
2011
1302
3163
848
2344
2580
1079
3680
806
3268
1929
1215
3352
1003
2074
2034
903
3344
604
3074
1848
1530
3105
761
2580
2216
1187
3615
709
3292
1730
1614
2998
748
3058
2313
1242
3560
549
3077
1612
1756
2738
504
3247
2258
1137
3357
158
3056
1383
1454
3197
1147
2979
1950
1362
3224
339
3158
1444
1717
3252
1021
2832
1769
1444
3210
522
3237
1284
1943
3260
879
2851
1698
1604
3373
856
3717
1554
1835
2617
378
2735
1625
1691
3418
1168
3770
1389
1814
2061
231
2864
1313
1885
3533
1160
3927
1504
2237
2428
118
2636
1334
1927
3174
916
3623
1244
2360
2948
1194
3384
1313
1796
2746
446
3029
1058
2389
2848
1294
3497
1481
1995
2541
572
3315
966
2368
2578
1187
3321
1278
2252
2691
722
3355
864
2331
2268
945
3268
1181
2352
2672
816
3444
879
2378
2473
1425
3460
1255
2507
2706
992
3313
961
2798
2237
872
3050
1087
2365
2373
1276
3557
588
2680
2454
845
2489
795
2520
2221
1439
3709
940
2859
1748
1139
3423
1037
2664
2168
1242
3423
680
2722
1874
1389
3234
911
2496
1740
1129
3132
635
3326
2431
1588
3124
1034
2748
1730
1431
3247
643
3247
1992
1410
2846
753
2919
1893
1565
2998
895
3008
803
1740
3654
869
2998
1824
1845
3378
588
3242
1901
1452
2575
803
3108
1761
1796
2945
885
3195
1108
1830
2937
816
3255
1601
2055
3000
693
3229
958
1893
2924
748
3305
1530
2003
2922
698
3413
1145
1588
2486
814
3331
1515
2373
3029
906
3189
866
2079
2672
756
3294
1307
2399
2825
848
3410
866
1877
2528
916
3350
1236
2433
2586
832
3397
1071
2578
2683
893
3392
963
2276
2407
819
3541
1061
2323
2567
1032
3336
1029
2378
2310
1034
3234
869
2798
2630
1205
3447
848
2441
2097
932
3234
801
2756
2499
1257
3449
851
2659
2137
1005
3313
1079
2772
2300
1231
3384
753
2712
2011
1071
3281
748
2575
2003
1236
3355
879
3014
2050
1315
3179
609
2796
2055
1465
3533
898
3016
1735
1163
2993
538
2895
1927
1305
3255
932
3336
2069
1772
3042
260
2804
1748
1365
3313
837
3276
1714
1641
3565
906
2780
1588
1415
3042
557
3077
1612
1659
3140
693
2906
1649
1604
3077
746
3339
1617
1845
3079
837
3423
1538
1599
3105
706
3166
1352
1775
2657
677
3533
1872
1830
2953
641
3331
1160
1806
3405
919
2620
1284
1798
2804
772
3308
1273
2331
2990
751
3189
1572
2084
2856
837
3462
1252
2168
2418
759
3378
1334
2153
2951
853
3447
1021
2034
2426
837
3126
1194
2210
2735
940
3567
945
2279
2457
793
3063
1166
2444
2874
1045
3376
738
2389
2195
811
3428
1449
2452
2659
1000
3250
614
2286
1885
1189
3735
1326
2512
2722
1097
3339
627
2515
1943
816
3092
1173
2641
2481
1339
3531
832
2869
1738
971
3318
1092
2620
2205
998
3192
465
2811
2174
1704
3691
1202
2195
1137
105
2651
701
4014
4095
4095
4095
809
1649
276
0
2132
654
3940
2995
1901
2465
268
2318
1706
1683
3909
1016
3263
1567
1252
2573
633
2930
1971
1583
3573
969
3528
1502
1520
2788
714
3216
2906
3273
4095
798
2363
0
0
1738
683
3974
3373
3373
4095
1089
2609
0
95
2234
756
3287
2158
2399
3623
591
3770
2034
2691
3024
903
2748
900
895
2271
171
3699
1376
1987
2583
1029
3373
2192
2864
3662
478
2678
0
247
1664
1008
3906
2751
3224
3722
774
3360
832
2239
2436
1160
3455
1788
2651
3140
814
3174
84
2184
2344
1179
3903
2685
3549
3588
457
1885
0
0
1155
1145
4095
3300
4095
3536
895
2927
0
1145
1937
1683
4095
3029
4035
3775
1037
2785
0
1428
1601
1155
2846
1181
1890
2013
856
4095
2594
4043
2822
1399
1588
0
0
609
433
3977
3113
4095
3132
2027
2727
654
1693
1877
1095
3596
1488
3405
2218
1662
2334
740
1914
2000
1250
3113
654
3250
2289
1824
2706
1000
1578
1260
1032
3486
1683
3798
2336
2187
2793
1100
1987
1609
948
2481
297
2510
1415
2321
3785
3006
4014
2846
1441
1294
0
1428
641
2323
4095
3922
4095
3266
1803
1722
0
2533
1607
1953
2349
1040
2016
1462
1512
3426
1788
3436
1667
1859
992
0
417
536
1827
4095
4095
4095
2801
1895
496
0
336
609
1817
3334
2000
3846
1929
2541
2226
1234
2195
1276
1583
2617
1347
3289
1460
2465
2439
1641
2633
1677
1882
2423
572
2596
1328
2672
2790
2452
3363
2084
1966
2166
835
3061
1378
2294
1822
1255
2040
1234
1932
2588
1643
3415
1328
2462
1856
1373
2244
1386
2108
2678
1848
3651
1541
2748
2027
1536
2510
1546
2289
2630
1229
3029
1307
2132
903
326
1247
1058
2575
3801
3628
4095
1407
2176
449
68
1517
1546
3100
3917
3667
4095
1496
1948
0
0
165
651
3407
4095
4095
4095
1528
1793
0
0
0
748
3581
4095
4095
4095
1263
1554
0
0
940
961
3297
2746
1273
2449
291
2977
2759
4095
4095
2565
2024
0
0
1176
438
3932
3365
4095
4095
2221
2281
118
0
1580
139
3772
2822
3620
3507
1607
2481
895
0
1817
147
3292
2034
3717
3901
1756
2381
858
144
1982
341
3956
2129
3182
3119
1402
2292
911
958
2819
562
3628
1533
2853
2746
1328
2699
1415
1299
2720
399
3462
1260
2903
2953
1780
3098
1383
990
2305
202
3247
1097
3011
2811
1801
3360
1937
1864
2615
134
3121
554
2433
2082
1383
3166
1809
2147
3032
730
3449
538
2531
1998
1226
2717
1108
1971
2853
935
3951
1273
3339
2208
1284
2289
373
1530
2523
782
4048
1444
3777
2531
1672
2764
557
1137
1864
538
3867
1116
3686
2481
1759
2888
861
1769
2376
882
3875
1042
3541
2055
1704
2638
675
2029
2223
714
3646
669
3363
1806
1651
2985
1171
2200
2271
1034
3539
352
3029
1294
1373
2557
1158
2877
2704
1336
3738
612
3247
1229
1672
2990
1179
2457
2410
1383
3709
564
3276
1315
1698
2229
753
2754
2281
1344
3609
790
3670
1520
2153
2166
570
2843
2066
1341
3672
664
3654
1297
1958
2809
1047
2258
1869
1462
3376
643
3620
1055
1948
2685
908
2090
1580
1559
3486
929
3911
1412
2381
2208
701
2625
1717
1523
3452
1016
3738
1047
2339
2202
853
2699
1722
1767
3436
966
3856
1250
2352
1811
785
2743
1580
1769
3357
1047
3880
1194
2515
2019
1129
2840
1583
1746
2675
331
3158
638
2772
2853
2040
3363
1796
1788
2391
81
2948
449
2651
2788
2124
3252
1630
1877
2399
160
3024
714
2916
2662
2113
3305
1696
1827
2137
312
3014
467
2811
2389
1893
2932
1567
2305
2607
827
3352
709
2777
1517
1370
2867
1499
2428
2651
1202
3644
525
2717
1515
1260
2641
1444
2552
2633
1349
3701
853
3011
1662
1444
2554
1284
2300
2481
1407
3436
641
3014
1268
1693
2788
1331
2620
2397
1273
3287
433
3061
1365
1712
2699
1331
2541
2244
1515
3510
499
3113
1294
1596
2402
1218
2667
2433
1698
3431
806
3061
551
1523
2491
1331
2956
2523
1992
3591
593
3155
1152
1851
2347
1294
2601
1751
1397
3042
740
3615
1410
2615
2825
1276
2470
1473
1037
2798
530
3628
1654
2861
2922
1504
2615
1389
1095
2520
407
3667
1704
2706
2441
1344
2436
1187
1357
2612
562
3573
1331
2898
2578
1420
2672
1478
1740
2827
903
3560
811
2549
2244
1323
2762
1685
2302
3095
748
3544
667
1966
1798
1530
3021
1840
2533
3006
795
3494
599
2307
1911
1586
2940
1667
2512
2809
677
3922
1087
2263
1656
1620
2801
1549
2189
2307
961
2822
0
3147
2097
1680
3100
1633
2607
2654
1105
3279
160
2699
1541
1604
2974
1756
2796
2693
1378
3113
100
3205
1693
1756
3008
1525
2622
2349
1155
3079
13
2885
1368
1688
2945
1701
2909
2394
1276
3334
163
2612
1137
1764
2701
1391
2885
2523
1567
3659
903
3389
1470
1908
2420
1000
2607
2307
1693
3504
722
3415
1502
2016
2363
1486
2893
1210
591
2867
578
3602
1599
2273
2594
992
2103
1271
1326
3497
1000
3612
1572
2496
2462
756
1924
1365
1641
3116
1058
4095
1286
2294
2499
1092
2436
1730
1803
2588
549
3961
1315
2489
2630
1281
2874
1738
1709
3124
543
3095
927
2302
2405
1541
3003
1761
1971
3258
667
3032
814
2305
2016
1286
2940
1578
1914
3079
719
3260
979
2586
2218
1446
2927
1620
2003
2843
714
3494
969
2630
2192
1394
2872
1488
1908
2680
711
3289
869
2662
2166
1570
2754
1318
2000
2607
984
3615
1189
3050
2103
1357
2373
1105
2111
2462
969
3439
675
2636
1961
2024
3302
1583
2389
2473
887
3266
651
2759
1706
1575
2958
1557
2544
2449
921
3203
585
2735
1777
1838
2767
1399
2554
2300
1134
3242
627
2882
1546
1861
2872
1357
2349
1740
1092
3347
767
3203
1754
2016
2958
1110
2817
2893
1082
2683
704
3158
1617
2166
2759
1221
2347
1389
1231
3381
772
3389
1751
2381
2937
1294
2481
1399
1087
3061
706
3363
1593
2326
2720
1252
2586
1310
1305
3111
706
3447
1672
2520
2641
1097
2832
1651
1376
2916
764
3502
1404
2244
2636
1197
2832
1803
1730
2979
798
3226
1118
2279
2373
1105
2903
1793
1908
2919
664
3100
727
1974
2168
1336
3321
2074
2478
3176
780
2966
588
2084
2160
1381
3229
1759
2452
3024
832
3242
706
2118
2097
1334
3226
1709
2237
2662
809
3150
798
2565
2181
1315
3045
1383
2279
2573
914
3504
1108
2814
2263
1397
2790
583
1614
2179
953
3546
1247
3242
2344
1326
2559
648
2370
2565
1139
3557
861
2856
2008
1276
3250
1349
2349
2470
1221
3315
832
2903
1961
1444
3145
1234
2389
2058
1042
3266
830
2966
1811
1635
3132
890
2483
2210
1218
3271
788
3058
1759
1496
3069
1089
2599
2058
1344
3376
835
3050
1785
1701
2935
900
2601
1953
1389
3158
853
3174
1706
1845
2512
651
3035
1927
1496
3268
685
3058
1544
1811
2607
633
2979
1966
1622
3323
942
3281
1404
1698
3105
1163
2780
1696
1709
3079
895
3100
1383
1922
2475
814
3095
1646
1704
2990
851
3268
1326
2003
2457
774
3124
1646
1911
3045
977
3462
1541
2111
2549
990
3208
1630
1856
2714
562
3242
1079
2105
3717
1349
2205
1205
1856
2575
950
3200
1234
2328
2289
1021
3481
1649
2063
2557
777
3279
1218
2363
2486
950
2932
1213
1985
2651
1152
3386
1192
2457
2370
1084
3155
1326
2300
2701
908
3297
1011
2447
2617
1173
2817
1168
2260
2573
1299
3166
1137
2552
1814
1236
3381
1213
2481
2439
1273
3336
935
2520
1927
1079
3024
1050
2475
2302
1265
3342
953
2722
2229
1223
2951
1247
2704
2202
1328
3323
893
2798
2284
1200
2599
956
2586
1969
1420
3179
809
2867
2037
1599
3124
898
2457
1691
1194
2888
998
3029
1733
2000
3560
1079
2699
1756
1488
2909
830
2990
1801
1798
3066
958
2848
1730
1433
2788
856
3192
1759
1696
2804
903
2987
1814
1932
3108
866
2966
1271
1538
2738
956
3245
1908
2205
3318
927
3174
1407
1297
2384
869
3092
1751
2250
3048
963
2790
772
1772
2748
948
3266
1727
2352
2930
969
3205
1155
1872
2594
958
3140
1307
2213
2822
1019
3263
1229
2289
2730
879
3119
1163
2074
2517
803
3347
1355
2092
2567
1055
3082
1142
2265
2496
990
3347
1263
2292
2510
1047
3126
1026
2237
2349
1108
3512
1381
2594
2651
1155
3008
806
2334
2244
1079
3714
1551
2533
2286
992
3035
793
2305
2132
1134
3449
1074
2433
2184
1208
3208
1042
2738
2208
1383
2859
478
2848
2373
1362
3507
1313
3113
2213
1415
2722
173
2591
1992
1336
3575
1142
2969
1961
1278
2885
389
2733
1969
1365
3546
1147
3100
2021
1423
3074
659
2573
1817
1389
3137
895
3287
2034
1572
3226
683
2436
1586
1470
3273
1071
3434
1937
1667
3200
635
2591
1677
1504
3195
966
3255
1746
1685
3056
706
2685
1599
1530
2958
879
3171
1559
1885
2825
877
3441
1893
1685
2830
509
2901
1355
2024
3273
1347
3276
1436
1638
2743
357
2785
1221
2071
3129
1341
3179
1507
1740
2670
790
3329
1418
2050
2525
982
3405
1578
1966
2809
885
3158
927
1977
2517
769
2958
1389
2305
2911
953
3439
1252
2326
2376
614
2916
1084
2045
2964
1391
3809
1268
2363
2391
559
2672
1163
2276
2793
1344
3714
1168
2402
2132
767
3040
1210
2302
2599
1032
3226
843
2441
2097
1173
3313
1208
2402
2457
1113
3476
908
2759
2389
1168
3273
1095
2410
2499
1181
3431
974
2733
2069
1058
2888
1071
2538
2313
1118
3318
764
2481
1830
1452
3166
1142
2657
2247
1315
3308
596
2817
1927
1297
2985
1155
2783
2202
1415
3423
730
3058
2027
1496
2966
979
2562
1977
1229
3021
746
3050
1520
1698
3208
1050
2691
1887
1394
3195
811
3087
1538
1872
3021
1058
2793
1911
1567
3137
609
3250
1625
1843
2853
1047
2901
1785
1601
3203
648
3218
1391
1725
2733
995
2922
1901
1780
3129
743
3121
1000
1769
2633
1021
3019
1798
1908
3140
725
3129
942
2021
2706
1016
3024
1748
1940
3045
696
3523
1289
1874
2318
995
2861
1412
1843
2977
877
3567
1310
2591
2788
1145
2911
1402
1796
2685
746
3494
1202
2643
2667
1236
2901
1166
1811
2630
557
3536
1265
2342
2231
1289
2893
1368
2218
2746
780
3586
1032
2536
2339
1352
2985
1323
2181
2617
885
3465
717
2536
2163
1352
3066
1383
2276
2525
853
3224
473
2759
2145
1436
3163
1386
2399
2591
1074
3373
428
2785
2016
1383
3092
1517
2654
2483
908
3494
596
2646
1824
1554
2956
1318
2701
2468
992
3418
415
2743
1838
1536
2888
1378
2688
2363
1234
3620
690
2919
1515
1635
3029
1082
2565
2174
1129
3113
260
3116
1675
1767
2922
1257
2806
2137
1024
3200
186
2809
1517
1956
3182
1693
3058
2355
1423
3179
171
2859
1326
1958
2885
1473
3011
2155
1420
3040
131
2956
1092
1943
2956
1502
2869
1848
1402
3092
260
3200
1410
2276
2704
1349
3048
1898
1360
2972
554
3596
1315
2045
2454
1210
2751
1796
1809
3203
706
3641
1278
2239
2163
751
2321
1467
1733
3636
1231
3651
1187
2431
2218
916
2504
1391
1977
3315
977
3712
1103
2273
1985
1024
2733
1486
1916
3258
935
3486
963
2468
2163
1318
2696
1520
2118
2720
606
3591
963
2520
1956
1457
2919
1347
2105
2874
893
3667
856
2615
1966
1399
2830
1504
2336
2783
916
3809
1113
2972
2042
1441
2575
1050
1885
2363
730
3357
662
2958
2223
1929
2890
1491
2229
1969
759
3376
428
2951
1803
1775
3150
1449
2402
2441
675
3171
651
3268
2176
2111
2869
1276
2050
1452
386
3279
675
3413
2179
2370
3247
1410
2271
2082
1042
3326
596
3045
1368
1701
2468
1124
2683
2591
1790
3770
659
2930
769
1192
2208
990
2919
3014
1961
3609
583
2838
727
1457
2315
1092
2990
2691
1635
3323
638
3187
1147
2105
2607
1347
2864
1861
1402
3281
669
3483
1357
2381
2515
1215
2793
1628
1134
2911
475
3518
1410
2748
2859
1470
2643
1223
1286
3045
441
3565
1418
2780
2678
1373
2691
1310
1331
2830
438
3552
1255
2790
2612
1546
2895
1425
1515
2733
425
3439
927
2720
2339
1284
3074
1677
1651
2859
767
3636
827
2599
2202
1334
2814
1399
1895
2838
648
3565
816
2727
2079
1452
2775
1404
2197
2998
866
3717
830
2888
1935
1234
2769
1229
1924
2659
908
3764
853
3029
1840
1347
3000
1404
2244
2735
890
3554
496
2872
1835
1578
3019
1383
2368
2699
853
3549
675
3140
1662
1580
3056
1200
1985
2155
872
3531
704
3381
1866
1824
2226
433
2570
2460
982
3880
924
3502
1725
1827
2738
861
2268
2118
1205
3969
837
3347
1530
1751
2192
559
2785
2234
1158
3623
677
3583
1502
1859
2937
1160
2349
1937
1179
3284
249
3216
1250
2058
3195
1588
2843
2097
1194
2974
84
3208
1134
2116
3019
1641
3221
2260
1488
3187
0
2953
809
1764
2625
1410
2979
2213
1730
3174
312
3365
1029
2239
2641
1436
3140
1853
1383
2790
37
3226
1011
2769
3197
1735
3234
1725
1142
2470
0
3045
698
2586
3111
1908
3161
1628
1328
2646
226
3410
1034
2924
2557
1168
2735
1310
1496
2987
927
4095
1281
2806
1977
698
2373
1013
1777
3260
1202
4095
1160
2825
2055
467
2216
1378
2176
3376
1394
4095
1053
2533
1649
856
2481
1368
2260
2937
864
3817
601
2982
2286
1381
2772
1397
2082
2431
478
3420
231
2822
2105
1733
3116
1381
2307
2741
748
3460
412
3021
1733
1549
3163
1515
2349
2796
1252
3588
404
2596
491
1360
3279
1423
2790
2806
1068
3588
231
3132
1625
1425
2714
1441
2748
2525
1131
3625
260
3203
1596
1817
2788
1103
2580
2347
1089
3452
349
3365
1307
1848
2914
1213
2452
1964
1205
3604
499
3462
1236
2063
2756
971
2575
2082
1415
3714
701
3903
1368
1404
1940
795
2617
2103
1866
4027
648
3497
756
1680
2294
924
2759
1940
1827
3641
583
3651
782
1943
2391
1079
2769
1992
1990
3567
462
3699
706
1717
1924
971
2859
2050
2179
3560
756
3830
467
2034
2279
1189
3035
2003
2040
3242
601
3541
425
2654
2525
1252
3087
1738
1719
2890
375
3567
798
2982
2730
1667
3040
1509
1764
2625
84
3360
643
2827
2363
1528
2943
1310
1801
2654
404
3987
1003
2662
2024
1499
2872
1205
1733
2746
585
3972
948
2783
1903
1370
2596
1273
2234
2743
987
3709
465
3218
2040
1546
2924
1339
2297
2599
903
3683
360
2982
1735
1473
2769
1152
2331
2454
858
3783
599
3255
1754
1549
2806
1163
2265
2436
987
3604
533
3392
1656
1562
2699
1315
2772
2701
1302
3644
239
3035
1286
1607
2748
1116
2412
2210
1226
3793
496
3397
1551
1914
2693
887
2226
1746
906
3596
683
3691
1565
2058
2825
1097
2433
1887
1171
3659
732
3843
1717
2237
2685
1155
2546
1688
940
2964
79
3423
1326
2502
3090
1559
2979
1769
1066
2864
0
3310
1381
2588
2951
1449
2916
1578
906
2730
13
3520
1147
2462
2738
1307
3016
1830
1607
3560
318
3069
690
2126
2150
1334
3281
2118
2321
3859
696
3441
520
2087
2066
1242
3029
1704
2066
3176
347
3615
635
2420
2205
1276
3003
1659
1948
2867
530
3898
717
2483
2179
1449
2914
1475
2276
2982
536
3930
950
2835
1979
1194
2814
1116
1869
2998
1026
4032
803
2877
1822
693
2071
748
2153
3323
1079
3777
837
3048
1748
1166
2470
1071
1746
1620
1042
4095
690
3161
2116
1717
3140
1331
2444
2297
0
2596
66
3168
2751
3628
4095
1956
1890
412
0
1586
0
3932
3830
4095
4095
1922
2011
806
0
1853
171
3801
2788
3150
3948
1727
2491
1743
386
2798
0
3297
2365
3229
4079
1817
2557
1404
121
2575
0
3119
2008
2806
3415
1612
2777
1512
774
3250
562
3287
1294
1733
2179
533
2273
1738
1502
4024
1399
3323
638
890
1313
536
3552
4032
3995
4095
1292
2982
173
459
1100
549
2670
2378
3053
3977
1271
3384
349
785
1192
318
2748
2754
3497
4095
1452
3040
0
291
667
223
2811
2641
3536
4095
1449
3428
730
1866
2011
1242
3179
1977
2452
2982
606
2943
520
2016
2121
1449
3357
1696
2034
2601
575
3121
1061
3019
2811
1845
3263
1068
1452
2063
483
3281
1292
3381
2767
1677
3302
1024
1218
1643
373
3331
1271
3470
3006
2045
3197
919
1772
2082
567
3292
1105
3273
2436
1656
2546
179
1953
2376
1016
3701
1370
3486
2407
1478
2966
790
1864
2118
1281
3822
1318
3205
1835
995
2436
87
1355
1785
1307
3877
1630
3612
2292
1628
2594
1194
3512
2859
1402
2945
0
1809
908
1244
3111
1901
3762
2714
1399
2843
0
1843
1053
1567
3520
2187
3785
2554
1347
2683
0
1866
953
1593
3667
2237
3418
2195
1423
2691
339
2777
1415
1835
2832
730
2533
1693
1572
3357
1341
3961
2037
1953
2599
116
1961
1473
1853
3798
1798
4024
1832
1743
1908
0
2153
1441
1769
3657
1950
4095
1869
1803
1927
0
1738
1047
2016
3901
2300
4095
2260
2092
1578
0
1709
877
2134
4095
2699
4095
2197
2042
1231
0
1441
751
1992
3455
1520
3444
1234
2058
2819
1536
3218
1714
2221
2150
200
2252
732
2328
3386
2811
4095
2155
1819
1097
0
1368
110
1872
3308
4056
4095
3489
2418
546
0
0
0
2174
4095
4095
4095
3439
2452
680
0
0
0
1651
3633
4095
4095
3134
3153
2197
764
2735
827
1874
47
0
470
55
2956
4095
4095
4095
3126
2704
0
0
0
0
3095
4095
4095
4095
3294
2155
0
0
0
0
3523
4095
4095
4095
3468
1517
0
0
0
0
2717
3554
2804
2804
979
3882
4095
4095
4095
1024
1360
37
0
1809
1378
3696
3473
3741
3591
879
1688
223
0
1399
1103
3880
4095
4095
4095
1777
1811
0
0
310
399
3455
3376
4095
4095
2465
2231
0
0
383
0
2412
2436
3628
3911
2100
3056
1194
1008
1633
428
2415
1520
2216
2775
1614
3132
1764
2158
2486
908
2586
1299
1806
2447
1546
3203
2074
2672
2783
1247
2578
790
1533
2197
1368
3032
1982
2945
3145
1664
2798
633
1145
1507
738
2780
2024
3205
3368
1977
3381
1381
1536
1570
1008
3006
2029
3056
3092
1801
2389
0
861
1431
1095
3158
2352
3352
2830
1788
2945
1523
3155
2859
1591
2646
727
1528
1423
1042
3045
1992
2966
2452
1551
2727
908
1748
1530
1079
2754
1719
2885
2428
1746
2825
1047
2139
1806
1357
2633
1095
2365
2342
1937
3071
1656
2819
1940
1389
2651
1205
2701
2433
1885
2628
575
1620
1357
1528
3016
2318
3798
2675
1693
2326
530
1659
1221
1617
3195
2397
3536
2349
1683
2166
433
1872
1368
1798
2961
1415
2552
1906
1851
2948
1895
3544
2234
1887
2594
816
2027
1601
1767
2649
1278
2819
1785
1843
2636
1129
2431
1677
1709
2620
1383
2788
1777
2294
3239
1780
2538
1536
1822
2457
1326
2838
1633
2027
2079
958
2738
1801
2247
2838
1549
2783
1349
1656
1347
711
2827
1691
2355
2909
1607
3061
1628
2097
1943
1134
2877
1659
2097
2363
1234
2667
1221
2155
2271
1339
2544
1323
2223
2533
1512
3029
1607
2680
2759
1956
3108
1475
1885
1775
769
2363
872
2342
3058
2701
3520
1853
2271
1877
767
2286
1184
2486
2213
1683
2890
1410
2087
2158
1835
3200
1355
2633
1541
0
1021
824
2851
3691
3623
4095
2174
2061
0
0
890
1011
3166
3951
3793
4095
1961
1956
761
769
2192
1168
2680
2735
2158
3205
1528
2237
924
1029
2399
1370
2554
2252
1751
2588
1029
2704
2418
2426
2906
1635
2510
1641
961
1814
722
2504
2132
2727
3323
1583
2326
1454
1208
2279
1058
2664
2032
2544
3224
1901
2533
1318
827
1719
816
2777
2402
3077
3423
2006
2630
1394
1034
1748
693
2525
1927
2628
3063
1953
2903
1751
1436
2013
753
2347
1567
2397
3071
2082
2712
1635
1604
2108
977
2662
1851
2625
2832
1586
2323
1292
1433
2126
1310
3405
2995
3701
3491
1751
1696
189
147
1100
1160
3368
2630
3119
2433
1315
2423
1593
2444
3132
1814
3276
1670
1462
1362
832
2040
1242
1927
2675
1719
3216
1706
1916
1803
1257
2504
1922
2685
2956
1698
2832
914
1444
1662
1544
2982
2349
3074
2979
1486
2363
816
2147
1908
1373
2654
1515
2066
2460
1733
2856
1118
2352
1893
1331
2636
1596
2328
2872
2048
3035
1570
2948
2116
1265
2084
473
924
1530
1473
3909
3268
4095
2846
1496
1242
0
39
793
1202
3951
3318
4095
2785
1599
1911
872
2368
2208
1733
3693
1160
2210
1929
1176
1817
1011
2349
2208
1801
3974
1801
2525
1672
1483
2609
1966
3336
2903
1643
2494
0
1278
1113
1861
3279
2481
3788
2877
1276
2045
0
1103
979
2045
3772
2872
3754
2775
1360
2008
0
1625
1320
2184
3586
2706
3633
2552
1231
2006
0
2003
1252
1948
3126
2176
3357
2436
1638
2607
407
2465
1370
1987
2617
1575
2735
1948
1609
2956
971
2972
1509
2087
2654
1499
2649
1948
1722
2890
914
3003
1515
2042
2373
1320
2491
1906
2008
3250
1525
3436
1572
2074
2008
864
2087
1412
1696
3095
1378
3263
1630
2373
2074
1074
2255
1381
1659
2730
1397
3667
1628
2394
2289
1223
2195
1475
1932
2507
1236
3604
1593
2426
2045
1236
2229
1315
1777
2701
1176
3163
1297
2517
2384
1848
2785
1693
1971
2163
617
2727
932
2701
2549
2061
3184
1777
2055
2489
672
2586
958
2664
2318
1950
2948
1683
1893
1893
688
2961
1000
2654
2216
1924
2974
1725
2142
2342
977
2927
1097
2696
2058
2000
2874
1635
2326
2360
1173
3116
903
2397
1607
1525
2449
1368
2365
2580
1365
3053
998
2638
1609
1565
2405
1420
2625
2709
1662
3334
1179
2809
1696
1927
2851
1693
2586
2391
1355
2827
693
2546
1593
2155
2935
1641
2452
1848
727
2360
680
2956
1898
2381
2945
1491
2373
1777
793
2528
898
3124
2124
2699
2937
1664
2239
1137
953
2867
974
3255
2011
2546
2646
1428
2394
1633
1559
3132
1110
3321
1722
2155
2428
1336
2447
1919
1725
2972
974
2809
1032
1635
1903
1318
3105
2893
2649
3310
1058
2510
494
1320
1567
1247
2804
2462
2867
3449
1150
2819
570
1352
1533
1239
2901
2210
2310
3116
1305
3163
1147
2307
2242
1420
2549
1698
2069
2838
1105
3260
1449
2609
2258
1473
2473
1218
1460
2378
1113
3407
1643
3121
2473
1559
2420
851
1271
2202
1034
3544
1748
3281
2680
1772
2541
874
1202
2042
877
3231
1407
2969
2292
1607
2594
1572
1998
2363
1105
3218
1305
2793
2003
1843
2620
1284
2208
2536
1292
3158
961
2830
1874
1559
2670
1520
2439
2465
1221
3166
866
2575
1691
1614
2817
1523
2265
2426
1344
3090
895
2654
1719
1677
2599
1656
2709
2502
1381
2977
879
2641
1494
1887
2788
1554
2604
2252
1284
2874
725
2680
1488
1817
2733
1599
2549
2087
1368
2906
827
2966
1617
1950
2604
1215
2431
2029
1509
3050
940
2964
1588
1945
2381
1310
2604
2108
1654
3100
1024
3137
1620
2092
2507
1273
2444
1929
1559
2961
1016
3053
1315
2029
2678
1436
2441
1908
1664
3008
1118
3027
1439
2205
2071
1197
2775
1935
1751
2956
1005
2987
1271
2074
2092
1454
2814
1851
1785
2696
864
3077
1210
2239
2436
1494
2549
1782
1964
2877
1171
3360
1286
2313
2444
1376
2454
1777
1843
2643
963
2956
1087
2276
2103
1470
2746
1748
1916
2599
987
3147
1313
2578
2273
1460
2504
1607
1995
2609
1226
3302
1221
2638
2247
1478
2575
1544
1969
2486
1061
3095
1032
2517
2145
1667
2817
1664
2142
2762
1347
3066
1063
2486
1777
1722
2851
1538
2142
2381
1053
3037
977
2604
1903
1572
2651
1570
2181
2423
1357
3318
1294
2979
2069
1523
2258
1307
2139
2315
1494
3407
1263
3048
2100
1730
2436
1302
2053
2040
1171
2966
1124
2951
1733
1895
2630
1323
2268
2271
1625
3231
982
2898
1685
1769
2573
1507
2407
2071
1523
3224
971
2888
1654
1717
2489
1538
2504
2069
1320
2785
798
2919
1680
2113
2620
1481
2502
2045
1520
2811
914
2998
1347
2097
2630
1391
2520
1969
1586
2880
1055
2880
974
2313
2880
1483
2796
2058
1785
3016
811
2916
1423
1890
2124
1467
2754
2111
1880
2922
979
3027
1118
1874
2153
1415
2706
1977
1977
2979
995
3029
1150
2137
2326
1612
2783
1895
2029
2725
688
3056
1168
2142
2428
1638
2625
1646
1704
2583
966
3431
1769
2567
2145
1339
2216
1334
1914
2664
1147
3444
1415
2601
2302
1578
2567
1599
2084
2699
1229
3205
1026
2483
2042
1436
2670
1538
1864
2586
1105
3155
929
2428
2074
1488
2620
1617
2197
2594
1208
3119
948
2570
1971
1536
2683
1722
2323
2573
1326
3297
1084
2596
1922
1798
2764
1599
2410
2470
1137
3213
929
2475
1767
1664
2670
1475
2239
2349
1202
3027
793
2746
1940
1767
2688
1536
2292
2234
1218
2964
963
3090
1987
1861
2683
1494
2307
2082
1252
3200
1024
2790
1704
1830
2494
1399
2399
2032
1318
3050
819
2801
1638
1956
2646
1457
2473
2134
1439
2932
811
3069
1814
2118
2720
1515
2533
2061
1399
3037
914
2769
1386
1906
2489
1433
2465
2137
1725
2901
782
2958
1533
2053
2381
1504
2704
1906
1562
2974
882
2961
1412
2192
2570
1599
2730
1995
1748
2838
759
2958
1194
2055
2415
1538
2696
1916
1806
2869
893
3035
1252
2113
2300
1478
2588
1761
1819
2685
890
3203
1370
2260
2184
1439
2675
1670
1882
3011
1108
3056
1197
2313
2234
1460
2570
1688
1948
2638
1050
3342
1357
2444
2139
1352
2612
1633
1969
2832
1145
3153
1331
2538
2155
1620
2641
1439
1830
2373
872
3100
1197
2578
2244
1806
2882
1649
2079
2496
953
3040
1129
2649
2289
1853
2819
1536
2160
2575
777
2667
1034
2678
2124
1971
2964
1701
2181
2129
795
3040
1116
2709
2155
2055
2717
1394
2147
2032
935
2880
929
2817
2048
1927
2801
1628
2229
1977
1331
3163
885
2649
1856
1893
2667
1565
2357
2097
1431
3134
998
2882
1872
1785
2494
1420
2418
2265
1562
3077
1100
2754
1528
1761
2344
1205
2481
2292
1717
3129
1194
2956
1383
1433
2176
1242
2714
2609
1985
3292
1242
2701
1349
1756
2197
1213
2391
1866
1874
3084
1110
3003
1538
1953
2460
1486
2622
1824
1604
2832
982
2914
1525
2307
2567
1278
2680
2011
1609
2570
969
3108
1565
2202
2510
1549
2709
1751
1790
2914
1092
2825
1289
2244
2391
1399
2573
1667
1987
2730
1013
3063
1320
2313
2423
1565
2919
1536
1533
2399
835
2851
1334
2491
2381
1428
2777
1635
1985
2620
1071
3058
1200
2263
2200
1425
2709
1428
1898
2575
1021
3021
1297
2586
2473
1601
2830
1515
1874
2231
1058
3147
1415
2827
2439
1591
2864
1234
1725
2310
1181
3147
1452
2830
2365
1649
2405
801
2040
2294
1126
3363
1533
2809
2252
1551
2575
977
1937
2294
1355
3357
1688
3145
2313
1439
2601
1032
1756
1914
1355
3468
1691
3111
2129
1386
2499
827
1748
1958
1541
3449
1583
3000
2111
1415
1761
349
2344
2336
1782
3806
1796
3037
2071
1523
2279
567
1830
2050
1777
3145
1213
2727
1565
1386
3045
2021
3302
2615
1525
2297
249
1793
1113
1604
3048
1956
3373
2664
1761
2615
795
2444
1491
1733
3113
1806
2901
2168
1467
2318
470
1992
1436
1893
2835
1887
3258
2195
1743
2525
840
2557
1641
1929
2846
1614
2717
1769
1701
2793
1255
2756
1656
1945
2394
1218
2817
1887
1806
2683
1194
2832
1704
2011
2699
1391
2575
1775
1761
2502
1200
2801
1583
2108
2735
1481
2649
1738
1856
2370
1037
2678
1431
2179
2898
1796
3027
1775
1769
2195
711
2315
1370
2289
2811
1790
3066
1788
1869
2255
1061
2691
1496
2234
2365
1436
2851
1525
1987
2575
1446
2990
1507
2281
2536
1315
2441
1449
2192
2536
1486
3116
1612
2239
2079
1166
2646
1425
2163
2594
1452
3040
1496
2213
2045
1129
2496
1452
2347
2578
1654
2919
1420
2205
1743
1284
2953
1667
2347
2263
1528
2914
1194
2336
2344
1402
2481
1475
2418
2221
1528
2825
1281
2405
1979
1523
2882
1399
2328
2289
1696
2901
1310
2578
2307
1607
2620
1441
2481
2134
1515
2688
1381
2420
1688
1609
2811
1376
2423
2013
1767
2848
1192
2536
1887
1551
2633
1376
2767
2284
1751
2704
1365
2565
1680
1583
2741
1373
2541
2042
1840
2756
1189
2460
1796
1743
2641
1334
2483
1801
1693
2594
1376
2654
1659
1916
2785
1360
2575
1806
1953
2783
1097
2835
2237
1617
2153
1334
2895
2027
1987
2777
1394
2552
1386
1691
2612
1428
2846
2055
2208
2746
1355
2604
1444
1685
2391
1376
2717
1675
1880
2391
1436
2759
1570
2433
2898
1336
2510
1265
1725
2237
1160
3129
2058
2365
2615
1247
2588
1483
1950
2452
1391
2882
1586
2029
2431
1294
2622
1533
2166
2415
1276
2935
1845
2189
2302
1394
2743
1402
2124
2399
1452
2709
1315
2244
2457
1439
2827
1452
2181
2292
1431
2769
1402
2394
2454
1397
2741
1302
2147
2221
1428
3116
1717
2286
2373
1467
2646
1221
2095
2063
1420
2916
1727
2586
2139
1292
2609
1026
2137
2103
1538
3195
1746
2538
2247
1425
2586
1005
2066
1924
1588
2903
1580
2751
2084
1352
2853
1467
2670
2137
1612
2609
853
2286
2181
1706
3084
1793
3189
2412
1664
2465
488
1725
1667
1588
3040
1559
2869
2019
1488
2712
1205
2370
1924
1659
2877
1386
2838
2042
1698
2701
977
2195
1782
1714
3037
1591
2903
1966
1662
2231
853
2678
2069
1817
2809
1152
2567
1712
1843
2869
1517
2762
1919
1667
2712
1334
2809
1806
1872
2696
1200
2504
1764
1817
2706
1242
2788
1667
1767
2531
1213
2633
1806
1895
2759
1360
2785
1549
1877
2641
1313
2717
1856
2019
2699
1297
2987
1670
1843
2420
1000
2433
1672
1982
2727
1517
2987
1628
2029
2153
956
2683
1586
1966
2796
1533
3027
1677
2071
2252
1042
2520
1612
1974
2481
1465
2903
1612
2344
2357
1523
3126
1596
2097
2412
1097
2704
1365
2276
2688
1620
2756
1557
2071
2344
1234
2704
1383
2284
2397
1578
2869
1557
2053
2331
1278
2738
1386
2276
2234
1659
2969
1586
2208
2250
1263
2712
1307
2507
2557
1725
2793
1541
2226
2003
1142
2725
1131
2289
2279
1659
2856
1491
2229
2147
1339
2788
1297
2444
2155
1599
2788
1557
2391
2258
1462
2741
1402
2426
1780
1722
2901
1412
2276
2003
1386
2738
1113
2696
2512
1740
2457
1323
2397
2100
1575
2877
1383
2680
1735
1428
2754
1355
2365
2292
1882
3035
1257
2436
1654
1425
2546
1446
2643
2310
1790
2888
1331
2583
1601
1578
2662
1517
2573
2076
1840
2869
1142
2573
1725
1740
2473
1328
2688
2048
1761
2901
1187
2743
1832
1656
2381
1252
2449
1940
1772
2693
1097
2777
1880
1948
2544
1446
2599
1840
1651
2691
1328
2725
1554
2040
2641
1475
2531
1704
1916
2712
1147
2948
1748
1969
2412
1328
2583
1827
1895
2633
1265
2730
1202
2095
2741
1462
2701
1906
1979
2517
1074
2793
1428
2079
2470
1436
2704
1748
1877
2633
1444
3079
1586
2168
2289
1278
2565
1691
2029
2672
1239
2814
1431
2111
2187
1462
2780
1701
2016
2546
1286
2914
1339
2237
2391
1491
2662
1562
2082
2494
1150
2867
1567
2365
2237
1562
2596
1404
1956
2399
1310
2995
1344
2302
2221
1520
2638
1688
2373
2507
1257
2987
1373
2223
1940
1544
2741
1567
2205
2410
1310
2843
1084
2339
2176
1570
2552
1452
2087
2139
1344
3203
1622
2714
2268
1722
2601
1391
2087
2247
1467
2840
1108
2717
2226
1717
2630
1546
2321
2155
1236
2651
1008
2654
2090
1780
2746
1431
2029
2111
1418
3147
1370
2504
1903
1803
2622
1625
2575
2258
1441
2846
1034
2510
1735
1719
2649
1557
2496
2210
1509
2877
1100
2628
1822
1856
2683
1628
2452
2024
1449
2725
809
2378
1677
1998
2819
1811
2607
2118
1523
2334
722
2780
1767
2124
2846
1811
2756
2121
1491
2158
530
2722
1672
2271
3095
1914
2872
2210
1538
2431
738
2630
1544
1872
2473
1449
2617
1835
1467
3515
1656
2431
1536
1869
2048
1315
2189
1672
1914
3035
1407
3121
1780
1961
1906
998
2289
1851
2055
3082
1609
3305
1670
1995
2129
1194
2355
1769
1895
2901
1410
3108
1583
2063
2200
1263
2226
1722
1869
2636
1575
3381
1693
2289
2166
1260
2289
1554
1880
2877
1520
2977
1457
2294
2082
1386
2502
1706
2142
2717
1184
2890
1265
2242
2294
1761
2948
1861
2132
2796
1026
2562
1226
2129
2121
1809
2662
1756
1927
1953
958
3061
1407
2426
2242
1685
2554
1696
2160
2512
1234
2793
1194
2420
2124
1790
2762
1691
2202
2517
1210
2911
1244
2431
2092
1722
2685
1709
2263
2507
1242
2856
1184
2381
1958
1620
2523
1612
2344
2775
1425
2714
1208
2452
1843
1793
2517
1549
2189
2208
1541
3082
1236
2714
1777
1649
2523
1486
2045
1943
1315
2987
1082
2615
2019
1887
2504
1599
2344
2145
1347
2846
1184
2712
1914
1992
2570
1554
2349
2210
1533
2935
1334
2777
1609
1746
2363
1488
2373
2147
1832
3182
1200
2604
1315
1441
2048
1334
2848
2840
2181
3142
885
2195
1032
1276
1851
1418
2932
2937
2649
3428
1118
2478
1213
1893
2412
1441
2297
1549
1166
2612
1365
3321
1929
2567
2704
1360
2176
1334
1223
2552
1160
3174
1748
2465
2717
1551
2601
1948
1496
2588
1063
2893
1478
2415
2523
1517
2691
1843
1307
2255
998
3121
1670
2649
2651
1691
2557
1439
1349
2339
958
3098
1761
2835
2447
1528
2389
1315
1643
2462
998
3263
1599
2546
2342
1704
2381
1166
1895
2685
1142
3218
1397
2473
2153
1683
2609
1470
2244
2751
1082
3000
1087
2439
2090
1525
2754
1733
2237
2809
1197
2940
1021
2460
1958
1433
2714
1586
1882
2289
1147
3111
1163
2649
2163
1643
2806
1670
2055
2447
1294
3035
1121
2636
1956
1712
2620
1446
2410
2481
1305
3355
1089
2428
1740
1570
2817
1544
2097
2339
1278
3084
1158
2680
1866
1698
2150
1184
2843
2649
1326
3224
1160
2638
1832
1924
2368
1160
2588
2496
1257
2951
1121
2982
1887
1701
2861
1575
1937
1927
1362
3090
1026
2809
1874
1838
2762
1381
2079
2108
1289
2903
992
2909
1838
1698
2777
1612
2055
1932
1402
3056
1171
2966
1872
2040
2720
1473
2352
2082
1355
2832
877
2848
1801
1932
2462
1504
2515
2021
1515
3040
1063
2932
1641
2034
2596
1347
2439
2069
1428
2796
874
2906
1638
1998
2767
1633
2462
1969
1404
2696
795
2793
1567
2139
2646
1473
2507
1987
1557
2830
1118
3066
1643
2158
2418
1457
2567
1832
1633
3014
1200
3056
1473
2132
2192
1029
2454
1992
1767
3006
1320
3276
1420
2011
2273
1145
2192
1599
1756
3079
1352
3271
1460
2137
2158
1126
2491
1979
1964
2843
1092
3179
1381
2153
2381
1509
2580
1848
1924
2709
843
2743
1061
2134
2336
1691
2890
1982
1882
2368
780
2790
1134
2355
2449
1956
2995
1798
1958
2583
780
2853
1187
2625
2512
1777
2843
1714
1853
2491
1184
3166
1328
2502
1974
1446
2706
1651
2021
2546
1200
3092
1097
2465
1971
1376
2583
1607
2187
2630
1263
3234
1187
2502
2021
1444
2478
1457
2021
2531
1349
3174
1189
2680
2087
1488
2391
1475
2210
2483
1268
3090
1163
2541
1680
1630
2754
1572
2263
2486
1441
3071
906
2575
1845
1693
2738
1677
2386
2462
1397
2995
1003
2754
2032
1717
2520
1512
2244
2218
1320
3035
1100
2706
1672
1761
2578
1470
2355
2205
1415
3087
1116
2888
1756
1761
2546
1399
2271
2213
1538
3082
1063
2762
1449
1599
2412
1428
2426
2210
1609
3195
1108
2827
1670
1853
2410
1407
2473
2200
1651
2987
956
2987
1683
1798
2318
1323
2428
2132
1761
3182
1223
3069
1541
1790
2336
1433
2607
2365
2029
3050
958
2486
578
1368
2250
1465
2814
2541
2237
3213
1092
2769
1068
1583
2134
1549
2796
2286
2163
3035
872
2769
1223
1903
2376
1622
2633
1785
1530
2573
919
3006
1743
2649
2762
1725
2457
1420
1192
2239
1016
3247
2097
3153
2793
1525
2231
1158
1103
2176
1068
3179
1827
2893
2533
1491
2313
1376
1570
2313
1110
3216
1604
2880
2607
1491
2457
1383
1488
2436
1210
3363
1853
2806
2328
1525
2394
1250
1538
2315
1024
3245
1457
2237
1979
1617
2678
1940
2470
2762
1147
2762
599
1811
1848
1654
2922
2284
2877
2937
1145
2651
410
1740
1848
1824
3100
2229
2599
2722
1226
2670
664
2381
2116
1693
2748
1788
2265
2515
1263
3042
1152
2460
1943
1628
2483
1549
2213
2447
1475
3281
1347
2714
1966
1649
2462
1397
2137
2357
1428
3292
1496
2662
1811
1530
2273
1263
2024
2092
1263
3250
1499
2767
1845
1693
2318
1252
2042
2129
1418
2985
1250
2909
1914
1890
2559
1481
2234
2139
1554
2846
1005
3098
2037
1948
2594
1496
2389
2061
1410
3048
1084
2746
1759
1877
2525
1473
2213
1940
1457
2825
1045
2951
1740
1922
2546
1515
2397
2055
1557
2819
1071
2888
1670
2058
2489
1470
2517
2040
1588
2914
1089
2979
1596
1943
2381
1433
2415
1932
1622
2843
1021
2843
1533
2013
2349
1389
2499
1945
1680
3042
1250
2906
1530
2139
2460
1549
2591
1990
1735
2777
1016
2859
1457
2111
2326
1496
2636
1911
1785
2906
1045
2785
1462
2160
2192
1507
2580
1761
1806
2691
1021
2977
1404
2223
2352
1625
2630
1819
1898
2641
935
2811
1226
2160
2273
1638
2722
1822
1935
2735
1110
2966
1439
2391
2370
1670
2528
1714
1882
2174
914
3119
1331
2428
2420
1730
2625
1620
1782
2449
1116
2864
1297
2538
2284
1670
2470
1683
2019
2132
1152
3321
1415
2533
2208
1704
2814
1691
2118
2625
1134
2859
1205
2449
2061
1601
2620
1544
2055
2620
1226
2930
1231
2328
1882
1583
2664
1701
2166
2583
1334
2843
1055
2389
2019
1777
2565
1670
2439
2552
1378
2998
1239
2554
1824
1696
2636
1481
2247
2412
1344
2951
1076
2544
1932
1725
2565
1454
2239
2394
1331
2914
1299
2696
1806
1685
2525
1551
2168
2079
1588
3126
1192
2693
1814
1803
2384
1383
2360
2100
1410
2898
1166
2804
1712
1903
2738
1570
2407
2032
1528
3050
1045
2793
1927
1851
2431
1449
2439
2084
1533
2958
1166
2777
1748
1903
2504
1520
2307
1845
1546
2867
1121
2867
1722
2168
2536
1462
2649
2069
1620
2867
1058
2754
1488
1971
2691
1460
2633
2237
1454
2588
987
2751
1725
2082
2431
1454
2510
1872
1604
2846
1281
2924
1562
2111
2520
1502
2399
1704
1796
2790
1055
2846
1583
2250
2397
1391
2709
1832
1604
2622
1139
2969
1507
2216
2525
1391
2594
1877
1691
2570
1179
2995
1509
2134
2289
1418
2562
1675
1790
2638
1208
2958
1420
2034
2265
1533
2460
1515
2286
2848
1103
2974
1436
2300
2200
1436
2943
1859
1987
2609
1208
2956
1292
2258
2289
1488
2609
1486
2171
2762
1176
2995
1368
2260
2234
1565
2764
1612
2042
2552
1273
3000
1399
2439
2200
1494
2517
1257
2145
2549
1134
2951
1339
2523
2205
1517
2809
1454
1924
2407
1299
3003
1221
2554
2307
1352
3252
2160
1635
1861
1210
2822
1137
2531
2189
1583
2578
1328
2281
2410
1310
2964
1158
2470
2108
1651
2633
1313
2326
2389
1373
3027
1205
2528
2016
1512
2620
1428
2531
2399
1423
3058
1263
2617
2006
1641
2772
1318
2302
2258
1410
3000
1294
2559
1835
1638
2638
1271
2517
2205
1399
3021
1239
2609
1895
1696
2712
1299
2391
2111
1460
2720
969
2712
1885
1740
2966
1486
2536
2184
1499
2880
1200
2636
1838
1751
2457
1213
2646
2079
1593
2864
979
2706
1824
1756
3069
1583
2326
1764
1452
2867
1286
2846
1738
1806
2769
1126
2321
1958
1733
2890
1184
2827
1877
1759
2003
990
2930
2116
1782
2948
1242
2809
1630
1885
2599
1194
2609
1861
1790
2851
1105
2901
1772
1935
2780
1328
2515
1677
1622
2775
1265
2922
1628
1935
2783
1247
2491
1827
1819
2693
1134
2882
1727
1927
2591
1410
2780
1824
1903
2743
1255
2743
1433
2100
2541
1252
2769
1709
1822
2583
1147
2901
1565
2008
2386
1276
2859
1649
1803
2657
1210
2822
1499
2171
2685
1323
2615
1633
1943
2538
1205
2890
1544
1953
2260
1467
2856
1670
2134
2512
1197
2906
1441
2273
2620
1331
2554
1515
2048
2363
1208
2909
1423
2250
2376
1365
2840
1549
2090
2544
1370
2809
1391
2305
2247
1488
2943
1593
2147
2360
1336
2888
1289
2208
2328
1428
2706
1520
2321
2473
1454
2922
1412
2394
2218
1449
2830
1418
2163
2252
1376
2893
1376
2386
2095
1378
2780
1425
2300
2334
1483
2943
1336
2415
2244
1378
2491
1307
2318
2263
1565
2853
1289
2444
2032
1578
2909
1457
2365
2121
1488
2864
1320
2496
2042
1570
2748
1370
2483
2145
1509
2793
1260
2460
1866
1575
2953
1428
2465
2019
1541
2804
1126
2617
2313
1680
2578
1355
2541
2050
1680
2759
1297
2591
1788
1817
2880
1268
2520
2000
1651
2678
1368
2664
1588
1743
2880
1323
2617
1877
1630
2790
1181
2735
2084
1622
2365
1231
2528
1780
1761
2704
1218
2706
1895
1908
2696
1239
2567
1843
1895
2701
1307
2733
1617
1908
2704
1263
2769
1864
1893
2691
1239
2764
1646
1772
2617
1428
2811
1830
2021
2696
1181
2804
1696
1709
2462
1355
2743
1772
2108
2696
1305
2717
1525
1945
2452
1244
2743
1559
1966
2528
1284
2714
1383
2090
2651
1318
2793
1541
1987
2473
1142
2838
1685
2231
2672
1341
2835
1488
1793
2360
1213
2895
1764
2095
2410
1320
2685
1441
2082
2418
1315
2982
1754
2276
2410
1215
2620
1310
2048
2307
1341
3095
1677
2302
2452
1355
2772
1265
2027
2389
1481
2995
1641
2607
2538
1273
2788
1142
1751
2166
1512
3082
1840
2777
2499
1171
2478
1013
2029
2126
1431
3029
1452
2439
2263
1370
3071
1672
2846
2470
1336
2622
533
1654
2090
1572
3294
1809
3014
2447
1121
2489
696
1935
2179
1478
3226
1706
2651
2218
1365
2819
937
1806
1974
1586
3121
1861
3376
2609
1355
2200
194
1625
1782
1580
3402
1777
3224
2420
1499
2756
942
2305
2129
1404
2767
1037
2223
1882
1625
3098
1756
3037
2226
1376
2706
932
2063
1801
1727
3045
1630
2817
2247
1664
2528
969
2502
1840
1693
2943
1551
2869
1911
1509
2827
1095
2494
1859
1759
2838
1223
2743
2126
1672
2751
1011
2573
1840
1483
2846
1517
2594
1856
1578
2688
1082
2349
1654
1845
2801
1273
2596
1856
1667
2426
1042
2657
1866
1940
2714
1352
2867
1777
1740
2851
1278
2874
1798
1935
2901
1255
2633
1956
1882
2625
1032
2764
1706
1806
2943
1528
2570
1664
1803
2717
1341
2712
1544
1908
2234
1042
2987
1890
1843
2607
1299
2888
1596
2050
2538
1176
2709
1659
2076
2893
1407
2958
1641
1945
2111
908
2696
1551
1940
2769
1373
2993
1607
2000
2300
1089
2790
1725
2071
2877
1601
2995
1457
1998
2247
1129
2775
1743
2113
2483
1242
3129
1530
2231
3129
1478
2242
1383
1953
2313
1184
2762
1391
2184
2342
1517
2985
1607
2192
2349
1011
2777
1391
2255
2499
1554
2927
1586
2053
2342
1284
2783
1362
2347
2297
1512
2919
1473
2124
2213
1024
2696
1334
2286
2258
1622
2990
1512
2111
2265
1323
2827
1326
2612
2733
1667
2546
1299
2210
2218
1318
2864
1425
2499
1919
1373
2838
1425
2355
2407
1646
3063
1215
2357
1992
1244
2533
1425
2523
2447
1782
3182
1284
2352
1688
1129
2620
1410
2447
2384
1772
3077
1194
2481
1898
1341
2664
1478
2523
2326
1722
2898
1268
2591
1827
1869
3019
1326
2352
1961
1305
2588
1097
2536
1775
1885
2974
1423
2607
2055
1315
2685
1095
2727
2181
1782
2662
1352
2323
1801
1378
2743
1231
2798
2255
1966
2657
1347
2475
1869
1473
2678
1202
2777
1822
1961
2811
1242
2365
1746
1520
2806
1173
3082
2255
1990
2510
1210
2528
1817
1457
2688
1255
2772
1596
1898
2741
1357
2549
1880
1803
2696
971
2722
1604
1859
2594
1483
2880
2113
2134
2995
1137
2541
998
1528
2478
1441
2966
2252
2357
3045
1005
2712
1268
1494
2378
1502
2817
1969
2150
2911
1134
2846
1507
2019
2355
1334
2659
1680
1767
2541
1187
2982
1509
2181
2457
1202
2538
1617
1864
2630
1294
3053
1446
2171
2436
1239
2567
1614
1911
2638
1231
3008
1609
2402
2499
1407
2659
1504
1824
2599
1218
3158
1727
2155
2234
1397
2586
1554
1953
2517
1187
2990
1465
2205
2189
1415
2720
1617
2103
2578
1292
2966
1286
2410
2428
1559
2772
1538
2008
2384
1145
3035
1462
2507
2349
1357
2622
1541
1911
2221
1210
2725
1113
2743
2468
1638
2811
1491
2103
2363
1215
2993
1223
2405
2210
1654
2798
1614
2365
2449
1271
3042
998
2108
1927
1515
2804
1693
2486
2510
1202
2788
940
2391
2069
1580
2814
1633
2378
2423
1323
3087
1299
2525
2021
1562
2544
1289
2084
2202
1357
2945
1129
2649
2000
1620
2691
1425
2328
2321
1478
3289
1328
2510
1911
1654
2615
1404
2297
2205
1299
2953
1158
2615
1869
1654
2628
1454
2402
2244
1399
2877
1095
2838
2066
1817
2699
1436
2342
2200
1452
2890
1100
2722
1811
1793
2725
1533
2426
2087
1502
3016
1032
2706
1906
1790
2672
1509
2452
2095
1389
2835
1016
2646
1748
1840
2552
1520
2533
2082
1578
2964
977
2638
1738
1916
2517
1452
2646
2150
1512
2945
1229
2819
1601
1908
2523
1460
2436
1992
1667
2867
1089
2932
1698
1932
2444
1368
2475
2029
1696
2861
1110
2851
1551
1985
2447
1389
2483
1817
1625
3003
1152
2830
1607
2090
2468
1423
2423
1877
1688
2517
1076
3360
1811
2126
2444
1389
2454
1751
1706
3011
1229
2851
1507
2071
2313
1407
2460
1869
1864
2798
1218
3074
1452
2087
2334
1470
2515
1740
1895
2859
1061
2817
1331
2100
2247
1310
2601
1869
1872
2636
1124
3045
1410
2271
2328
1491
2649
1785
1866
2714
1197
3069
1457
2289
2208
1404
2538
1751
1880
2594
1166
2969
1202
2223
2205
1478
2418
1572
2061
2801
1294
3140
1399
2352
2103
1601
2893
1830
2174
2903
1058
2746
1163
2326
2189
1712
2827
1712
2037
2680
1029
2733
1218
2565
2247
1853
2856
1706
1835
1895
803
2998
1192
2570
2247
1890
2688
1536
2079
2247
872
2906
1179
2709
2244
1803
2709
1593
2147
2315
1362
3397
1200
2525
2032
1567
2452
1486
2179
2407
1242
2985
1076
2559
1893
1565
2517
1580
2260
2415
1410
3098
1134
2601
1861
1740
2580
1460
2263
2389
1373
2998
1103
2741
1775
1677
2667
1467
2252
2363
1310
2969
1082
2628
1803
1856
2622
1517
2315
2273
1286
2916
1139
2856
1877
1898
2685
1559
2460
2342
1315
2838
1068
2714
1759
2050
2515
1336
2281
1937
1334
2985
1066
2861
1727
1893
2525
1551
2331
1782
1488
3195
1082
2893
1788
2013
2544
1383
2454
2195
1460
2769
1016
3003
1861
2265
2735
1656
2397
1717
1431
2932
1110
2953
1667
2255
2536
1376
2452
1885
1488
2788
916
2838
1423
1767
2213
1436
2712
2289
1824
2906
979
2783
1412
1977
2342
1475
2596
2100
1809
2788
1131
2922
1231
1969
2297
1457
2457
1796
1969
3021
1084
2969
1378
2053
2184
1370
2725
2155
1982
2840
1021
2872
1244
2016
2197
1591
2748
1906
1969
2916
1126
2930
1284
2307
2281
1554
2680
1759
1864
2636
969
3032
1305
2321
2321
1523
2612
1538
1651
2580
1110
3132
1352
2544
2271
1273
2573
1586
1688
2578
1095
3161
1460
2557
2328
1512
2709
1788
1651
2452
1208
3179
1431
2633
2271
1635
2244
1074
2176
2785
1100
3289
1412
2643
2294
1643
2646
1423
1822
2447
1124
3069
1108
2475
2045
1407
2822
1971
2252
2578
1176
3011
1016
2223
1830
1649
2607
1583
2504
2696
1155
2974
885
2368
1948
1601
2853
1880
2355
2475
1184
3011
940
2418
1914
1712
2798
1517
2160
2410
1147
3024
1068
2680
2034
1672
2730
1551
2258
2302
1234
3066
1092
2822
2013
1693
2793
1541
2045
2250
1318
2974
1121
2882
1914
1827
2625
1289
2300
2189
1229
3231
1124
2906
1861
1572
2730
1373
1943
2197
1499
3087
1003
2885
1864
1793
2888
1596
2229
2187
1310
2864
929
2714
1638
1775
2491
1352
2381
2181
1475
3029
1173
3019
1756
1929
2142
1173
2843
2334
1583
3147
1118
2927
1541
1958
2394
1137
2554
2176
1525
3092
908
2748
1533
2006
2659
1596
2754
2050
1255
2664
711
2696
1488
2171
3210
2118
2625
1851
1483
2575
433
2607
1383
2195
2848
1641
2735
2000
1509
2814
877
3032
1502
1969
2428
1334
2546
1887
1591
2846
816
2895
1402
2084
2365
1504
3035
2168
1819
3014
1037
3129
1352
2158
2680
1315
2223
1557
1775
3042
1179
3271
1481
2168
1801
893
2756
1864
1874
3158
1313
3441
1496
2176
1914
1019
2762
1767
1751
3008
977
3063
1268
2174
2373
1276
2402
1680
1782
2830
1137
3279
1328
2355
2410
1273
2478
1664
1861
2895
1097
3266
1310
2344
2352
1339
2651
1735
1782
2696
1061
3271
1139
2205
2420
1381
2436
1698
1969
2720
990
3203
1229
2328
2441
1572
2515
1617
1953
2609
940
3082
1042
2344
2415
1693
2759
1680
2034
2594
971
3082
1307
2649
2174
1509
2777
1620
1992
2633
1181
3237
1250
2378
1557
1284
2783
1586
2103
2699
1402
3434
1255
2570
1756
1242
2622
1536
2208
2830
1444
3300
966
2486
1908
1218
2402
1428
2223
2798
1415
3371
1163
2523
1698
1079
2360
1478
2237
2798
1643
3504
1242
2638
1856
1376
2465
1486
2218
2415
1184
3108
1016
2727
2260
1995
2869
1596
2153
2129
683
2696
764
2712
2323
2118
2880
1591
2179
2074
1000
3003
1097
2733
1885
1890
2798
1402
1995
2071
1276
3021
1066
2830
1856
1806
2552
1467
2457
2326
1439
3103
1016
2798
1746
1790
2693
1533
2397
2221
1365
2924
1005
2901
1735
1969
2838
1544
2363
2042
1223
2885
937
2906
2008
2029
2591
1502
2321
2045
1357
2748
866
2853
1759
2053
2641
1491
2365
1964
1462
2859
953
2877
1638
1964
2536
1425
2441
2137
1633
3063
935
2987
1835
1848
2412
1588
2573
2042
1528
2940
1045
2825
1452
2034
2502
1383
2386
1890
1533
2838
1058
2935
1481
2210
2512
1410
2580
1922
1591
2869
966
2979
1449
1953
2307
1420
2641
2042
1840
2958
1063
3037
1339
2074
2473
1431
2596
1922
1775
2979
966
2953
1439
1958
2276
1530
2565
1964
1966
2811
953
3137
1467
2019
2195
1549
2701
1929
1956
2775
1063
2964
1000
2126
2294
1349
2591
1908
2097
2924
1268
2969
911
2386
2462
1310
2489
1738
1893
2741
1173
3315
1554
2384
2247
1515
2507
1517
1670
2426
1016
3116
1328
2444
2231
1586
2672
1651
1940
2599
1221
3210
1255
2496
2231
1481
2612
1601
1937
2523
987
3147
1483
2570
2137
1580
2696
1620
1929
2494
1066
2935
1084
2562
2234
1714
2712
1609
2116
2570
1097
3061
1281
2531
2021
1588
2659
1580
2034
2465
1202
3061
1053
2502
2142
1696
2633
1562
2137
2412
1142
3142
1202
2510
1961
1546
2528
1565
2189
2449
1252
3092
1047
2486
2029
1785
2693
1614
2289
2410
1202
3145
1234
2641
1953
1754
2688
1580
2184
2318
1289
2809
756
2573
1769
1551
2578
1625
2512
2510
1452
3226
1068
2318
1659
1764
2743
1761
2457
2289
1352
2853
827
2846
2016
1864
2657
1494
2292
2216
1297
2769
942
2966
1885
1803
2756
1717
2538
2305
1449
3006
843
2376
1643
1885
2620
1520
2428
2263
1465
3218
1320
2712
1654
1853
2365
1318
2145
1953
1544
2685
995
3344
1869
1901
2554
1205
2134
1893
1483
3111
1265
3142
1851
1859
2389
1357
2265
1903
1402
2717
966
3150
1796
2024
2583
1465
2512
2111
1559
3258
1331
2622
1431
1927
2407
1457
2376
1832
1551
3024
1103
2796
1635
2124
2281
1257
2549
1990
1546
2788
940
2937
1677
2097
2536
1601
2607
1979
1691
2998
1089
2785
1591
2195
2334
1399
2491
1885
1620
2672
1158
3174
1541
2066
2373
1473
2352
1670
1866
3069
1410
3339
1607
2150
2307
1271
2386
1819
1709
2664
1021
3011
1512
2116
2302
1352
2410
1772
1719
2706
1047
2856
1352
2160
2323
1646
2628
1853
1908
2562
940
2990
1412
2378
2415
1635
2769
1832
1848
2638
921
2814
1284
2326
2378
1633
2769
1798
1809
2780
1145
2838
1189
2174
2197
1538
2536
1803
2037
2583
1184
3166
1404
2405
2189
1562
2630
1743
2108
2772
1129
2814
1150
2339
2145
1730
2861
1759
2013
2431
893
2914
1252
2389
2147
1593
2586
1633
2069
2525
1352
3352
1320
2357
2050
1460
2517
1612
2163
2927
1465
2869
1176
2468
1908
1551
2680
1696
2163
2447
1171
2916
1100
2486
2158
1932
2767
1575
2113
2184
995
2940
1229
2717
2160
1801
2704
1593
2166
2323
1370
3166
1218
2678
1898
1525
2412
1436
2202
2313
1465
3221
1158
2499
1809
1586
2431
1460
2210
2181
1336
3016
1089
2691
1874
1814
2675
1502
2357
2439
1302
2817
1134
2717
1887
1885
2701
1541
2355
2226
1281
2851
966
2544
1880
1987
2688
1575
2360
2097
1467
3050
1152
2861
1903
1864
2667
1622
2386
1929
1163
2756
1050
2809
1919
2179
2867
1504
2376
2063
1137
2575
1026
2756
1685
1790
2386
1307
2426
2281
1811
3161
1257
2714
1536
1803
2263
1278
2431
2066
1830
3119
1142
2840
1604
1740
2489
1467
2630
2090
1578
2827
1008
2735
1517
1895
2436
1320
2617
2294
1811
2880
1176
2861
1452
1712
2166
1549
2554
1811
2163
3339
1271
2893
1339
1953
2386
1255
2628
2187
1966
2748
950
2772
1126
1504
2003
1355
2848
2158
2250
3140
1066
2804
1355
2174
2599
1373
2625
1911
1664
2594
1176
3266
1866
2531
2562
1467
2596
1260
1105
2373
1171
3155
1803
2972
2827
1483
2279
845
1320
2426
974
3434
1985
2748
2741
1625
2788
1454
1651
2701
1089
2914
1273
2121
2176
1205
2738
2137
2271
2620
1066
2764
819
1722
1919
1365
2796
1832
2276
2796
1257
2943
1131
2268
2218
1549
2919
1793
2428
2722
1082
3014
1045
2021
2029
1336
2853
1693
2097
2678
1155
2670
887
2137
2000
1339
2746
1832
2615
2725
1194
2995
1003
2074
1974
1441
3061
2019
2373
2486
1192
2846
1011
2468
2174
1583
2733
1213
2192
2426
1155
3271
1515
2982
2557
1790
2969
1192
1754
2184
1252
3234
1507
3027
2475
1646
2680
1042
1764
1924
1113
3260
1488
2961
2289
1601
2659
958
1780
1882
1142
3111
1252
3035
2315
1567
2510
795
2171
2281
1265
3344
1446
2780
2006
1578
2951
1378
2176
2202
1407
2927
984
2683
1924
1551
2811
1433
2804
2378
1352
2877
735
2402
1714
1659
3082
1567
2609
2163
1362
2966
906
2520
1714
1551
2693
1273
2685
2197
1404
2958
984
2654
1719
1659
2814
1365
2767
2263
1607
3058
1116
2906
1898
1817
2788
1108
2441
1940
1517
2998
1215
2972
1819
1761
2672
1079
2594
1998
1562
2914
861
2685
1754
1814
2720
1360
2890
2024
1488
2733
753
2601
1538
1827
3048
1819
3058
2042
1565
2667
638
2520
1418
1848
3218
1740
2869
1856
1496
2654
803
2701
1538
1856
2620
984
2515
1769
1790
3119
1334
3263
1772
1801
2342
525
2142
1633
1827
3179
1614
3552
1890
1782
2055
651
2473
1515
1680
2788
1050
2935
1533
2160
2709
1276
3008
1764
1735
2764
984
2809
1431
2003
2494
1252
3019
1725
1908
2927
1068
3040
1559
2040
2691
1079
2683
1620
1819
2769
1294
3205
1549
1793
1971
633
2402
1368
1953
3103
1499
3347
1628
1880
1998
365
2071
1391
2113
3184
1874
3770
1580
1767
2090
365
2037
1446
2021
2664
914
2567
1252
2242
3105
2339
3678
1940
1733
1908
420
2336
1173
2286
3027
2268
3481
1754
1977
2279
714
2412
1095
2205
2520
1460
3003
1651
1964
2229
982
2796
1097
1940
2105
908
2426
1407
2084
2725
1646
3300
1643
2412
2166
738
2216
1307
2213
2814
1964
3638
1772
2436
2357
1315
2583
1444
2523
2788
1536
3111
1591
2607
2494
1788
3294
1756
2294
2137
927
2515
1113
2273
2297
2197
3696
1772
2460
2373
1113
2672
1323
2714
2604
1943
3339
1662
2234
2090
1208
2927
1273
2662
2835
1956
2948
1473
2347
2192
1310
2767
1334
2743
2168
1698
3187
1554
2386
2037
1297
2951
1137
2384
2069
1328
2478
1108
2494
2475
1714
3150
1357
2596
2019
1192
2567
1410
2596
2510
2069
3355
1575
2452
1389
1394
2974
1305
2722
2607
1856
3092
1210
2407
1562
764
2103
1019
2454
2265
1901
3297
1352
2562
1929
1286
2391
1210
2520
1961
1449
2638
1058
2578
2092
2150
3294
1465
2231
1307
746
2058
840
2861
2895
2840
3258
1160
1990
948
604
1935
895
2856
2433
2420
3189
1420
2363
1507
1365
2596
1163
2738
1730
1486
2552
1334
2856
2286
2132
2979
1226
2475
1260
1305
2399
1218
2919
2223
2187
3111
1397
2523
1121
1360
2457
1160
2895
2231
2368
3245
1310
2688
1383
1121
2189
1234
2922
2252
2331
2979
1166
2475
1271
1441
2378
1244
2911
2189
2370
2953
1239
2809
1515
1383
2200
1229
2911
2029
2155
2864
1239
2483
1116
1822
2759
1339
2756
1617
1827
2441
1029
2801
1848
2168
2725
1410
2714
1465
1743
2436
1218
2830
1782
2344
2769
1386
2704
1436
1746
2208
1252
3111
1922
2452
2751
1320
2544
1100
1507
2218
1341
3184
2237
2759
2756
1213
2391
914
1292
1950
1357
3037
1872
2756
2759
1323
2756
1389
1945
2328
1286
2830
1607
2347
2460
1286
2683
1305
2034
2318
1334
2840
1494
2279
2460
1483
2924
1460
2336
2575
1299
2825
1402
2019
2195
1134
2806
1583
2342
2412
1265
2903
1467
1911
2129
1441
2985
1565
2294
2342
1355
2714
1234
2176
2276
1344
2796
1415
2376
2368
1538
2958
1299
2226
2294
1397
2853
1483
2491
2307
1425
2911
1292
2310
2297
1292
2851
1512
2415
2197
1328
2712
1171
2242
2276
1457
2869
1386
2412
2205
1344
2780
1271
2150
2134
1622
3042
1562
2580
2132
1402
2475
803
2226
2103
1525
3045
1433
2659
2297
1423
2583
1016
2265
2118
1546
3056
1633
2806
2307
1596
2919
1328
2268
1919
1446
2835
1352
2662
2218
1607
2851
1213
2189
1908
1533
2864
1428
2678
2171
1746
2790
1163
2368
1924
1544
2783
1139
2376
1864
1612
2961
1817
3126
2310
1481
2386
698
2006
1604
1572
2927
1654
2966
2208
1628
2622
1008
2302
1701
1641
2848
1509
2796
2095
1649
2662
1118
2460
1782
1717
2814
1318
2475
1914
1811
2853
1347
2769
1932
1691
2483
1011
2433
1827
1696
2885
1515
2856
1890
1746
2554
1121
2570
2013
1964
2979
1433
2675
1869
1901
2544
1357
2859
1898
1754
2662
1234
2712
1698
1845
2754
1276
2528
1806
1872
2822
1418
2911
1851
1840
2638
1365
2607
1861
1817
2617
1231
2678
1683
1827
2483
1273
2704
1772
1777
2559
1187
2649
1722
1992
2481
1223
2699
1832
1922
2628
1202
2646
1596
1898
2696
1651
2811
1670
1735
2370
971
2378
1520
2071
2743
1735
3087
1916
1806
2166
869
2499
1410
1958
2898
1743
2712
1730
2029
2567
1260
2701
1659
2155
2478
1294
2649
1693
2032
2531
1355
2927
1635
2027
2349
1289
2775
1651
2045
2596
1355
2772
1525
2021
2313
1257
2507
1475
1901
2342
1376
2911
1544
2237
2525
1431
2628
1481
2053
2528
1439
2906
1706
2289
2034
1257
2869
1557
2163
2649
1617
3113
1449
2092
2323
1173
2441
1551
2297
2738
1738
2951
1431
2268
2082
1084
2654
1685
2213
2252
1418
2998
1470
2268
2090
1236
2541
1278
2179
2604
1649
2979
1491
2378
2213
1439
2804
1670
2307
2399
1478
2919
1407
2223
2176
1575
2720
1431
2208
2255
1360
2717
1365
2384
2139
1331
2468
1433
2286
2268
1562
2979
1467
2441
2187
1672
2796
1433
2223
2160
1339
2717
1281
2376
2197
1677
2827
1596
2239
1937
1142
2615
1218
2313
2160
1772
2798
1483
2342
2370
1544
2510
1205
2538
2113
1740
2806
1633
2470
1992
1362
2814
1365
2426
2021
1887
2874
1425
2297
2150
1567
2680
1197
2599
2084
1580
2557
1425
2423
2076
1572
2935
1391
2525
2027
1722
2622
1439
2410
2084
1523
2559
1239
2591
1919
1887
2720
1425
2454
1874
1541
2851
1352
2552
1777
1843
2746
1378
2441
2053
1685
2756
1326
2859
2048
1633
2426
1386
2428
1979
1746
2720
1187
2491
1659
1869
2683
1428
2436
1901
1677
2580
1226
2835
1953
1935
2520
1320
2452
1672
1620
2722
1352
2804
1853
2053
2609
1260
2360
1764
1759
2738
1273
2890
1932
1932
2554
1475
2512
1788
1696
2646
1229
2541
1538
1987
2565
1525
2741
1914
1730
2465
1147
2783
1777
2223
2693
1546
2646
1685
1680
2680
1294
2898
1895
2195
2559
1378
2449
1649
1691
2570
1286
2922
1845
2273
2641
1523
2544
1452
1326
2197
1079
2890
1895
2360
2641
1643
2722
1599
1234
1903
885
2979
1998
2496
2601
1494
2714
1887
2176
2746
1071
2491
950
1517
2095
1305
2670
2155
2712
3203
1507
2649
759
1460
2063
1446
2853
2168
2664
3121
1457
2735
953
1769
2158
1357
2615
1893
2368
2730
1339
3040
1407
1885
2000
1412
2685
1688
2153
2620
1263
3150
1751
2231
2147
1347
2494
1599
2074
2546
1302
2909
1399
2181
2179
1554
2657
1654
2048
2381
1404
2657
1210
2709
2439
1614
2735
1559
1956
2239
1378
2927
1286
2638
2365
1536
2607
1397
1956
2326
1278
2874
1315
2523
2305
1588
2714
1633
2111
2389
1294
2985
1475
2242
1966
1591
2573
1494
2126
2318
1310
3003
1509
2460
2087
1691
2562
1491
2187
2239
1370
3032
1428
2596
2118
1601
2552
1449
2150
2310
1420
2756
1100
2549
2048
1586
2620
1617
2386
2412
1449
2911
1226
2342
1824
1667
2699
1643
2407
2352
1488
3092
1310
2376
1872
1733
2565
1486
2292
2200
1418
2756
1061
2641
1987
1719
2628
1572
2326
2216
1528
2806
1113
2636
1877
1772
2654
1559
2399
2242
1465
2691
1079
2769
2024
1874
2559
1386
2297
2050
1373
2948
1278
2638
1845
1817
2594
1470
2250
2034
1467
3066
1407
2654
1856
1887
2433
1402
2368
2074
1580
3071
1315
2822
1914
1872
2499
1478
2281
1987
1580
2832
1210
2846
1840
1906
2415
1339
2315
1995
1565
2874
1294
2769
1591
1848
2418
1360
2318
2016
1740
2843
1268
3042
1730
1908
2439
1334
2323
1908
1701
3084
1383
2822
1591
1861
2292
1381
2415
1964
1796
2919
1092
2730
1578
1945
2504
1670
2691
2134
1803
2517
885
2840
1604
2134
2512
1641
2657
1890
1667
2722
1142
2785
1512
2040
2399
1565
2615
1945
1630
2502
843
2672
1575
2339
2575
1756
2806
1937
1628
2465
806
2657
1470
2197
2449
1748
2701
1832
1864
2885
1181
2853
1494
2197
2352
1643
2685
1798
1746
2835
1100
2567
1370
2281
2313
1756
2743
1691
1803
2675
887
2583
1370
2339
2310
1667
2659
1893
1937
2355
1121
3111
1428
2260
2176
1646
2523
1683
2118
2678
1236
3084
1307
2263
2076
1502
2402
1691
1948
2260
1244
3098
1286
2384
2171
1719
2512
1738
2265
2418
1397
3229
1284
2441
2042
1572
2580
1635
2124
2562
1323
2832
1145
2483
2087
1628
2441
1614
2087
2179
1276
3171
1397
2649
2111
1641
2494
1685
2003
2132
1454
3119
1213
2507
1982
1698
2486
1538
2202
2460
1391
2890
1210
2562
1827
1662
2643
1562
2349
2754
1457
2851
1137
2397
1853
1683
2523
1572
2265
2531
1349
2924
1370
2583
1840
1709
2565
1628
2105
2328
1580
3003
1234
2557
1827
1769
2328
1428
2352
2391
1428
2916
1323
2764
1761
1706
2462
1462
2297
2339
1512
2979
1087
2586
1887
1751
2313
1622
2126
1746
1596
3263
1260
2735
1827
1769
2355
1572
2111
1859
1672
3113
1184
2775
1874
1922
2418
1538
2528
2426
1580
2735
1105
2762
1656
1906
2704
1646
2462
2365
1481
2764
963
2552
1693
1869
2428
1580
2531
2276
1412
2748
1163
2709
1583
1887
2439
1525
2360
2055
1620
2935
1181
2769
1591
2090
2620
1499
2433
2174
1551
2748
1139
2888
1575
1937
2441
1444
2489
2150
1625
2906
1105
2814
1677
2055
2457
1507
2454
2069
1520
2741
1100
2767
1593
2124
2452
1612
2457
1940
1641
2675
990
2827
1441
2231
2457
1494
2496
1840
1583
2827
1184
3066
1704
2252
2481
1567
2412
1685
1523
2727
1155
3092
1738
2426
2565
1546
2313
1530
1473
2662
1108
2943
1523
2292
2310
1491
2510
1748
1649
2612
1082
3029
1593
2376
2342
1559
2541
1788
1911
2832
1155
3040
1449
2223
2223
1483
2481
1746
1767
2699
1179
2985
1520
2412
2279
1452
2386
1570
1685
2654
1231
3098
1515
2297
2307
1504
2546
1809
1893
2709
1189
2945
1339
2202
2126
1654
2567
1672
1943
2685
1215
3011
1418
2397
2268
1685
2410
1622
2197
2785
1145
2806
1152
2300
2192
1546
3063
2436
1659
2032
1100
2832
1215
2418
2108
1528
2575
1706
1971
2531
1171
2901
1284
2504
2271
1832
2575
1530
2090
2628
1181
2956
1273
2323
2034
1656
2659
1803
1961
2365
1284
2888
1271
2609
2019
1691
2496
1467
2176
2533
1257
3069
1218
2273
1893
1754
2575
1659
2496
2741
1389
3016
1129
2460
1885
1446
2706
1906
2129
2318
1281
2874
1113
2326
1851
1827
2286
1318
2573
2754
1418
2924
1092
2620
1919
1570
3058
2174
1811
1943
1410
2880
1034
2517
1872
1811
2510
1475
2389
2473
1423
2998
1218
2651
1861
1769
2428
1486
2347
2297
1360
2969
1189
2664
1866
1832
2491
1449
2263
2239
1336
2867
1147
2675
1788
1851
2586
1546
2302
2202
1449
2982
1184
2817
1911
1903
2507
1523
2475
2331
1467
2937
1095
2636
1719
1885
2756
1767
2284
2111
1507
2895
945
2486
1759
2000
2546
1656
2415
2061
1373
2628
856
2667
1596
1901
2772
1798
2494
2132
1491
2835
1071
2848
1798
2069
2441
1360
2447
2129
1533
2966
1192
2893
1620
1885
2620
1462
2321
1985
1507
2806
1058
2885
1691
2074
2454
1418
2389
2003
1646
2935
1305
3084
1551
1911
2163
1173
2292
1861
1664
3032
1320
3077
1562
2006
2258
1097
2150
1895
1790
3053
1376
3216
1656
2069
2244
1247
2420
2029
1840
2995
1299
3121
1591
2108
2307
1373
2423
1908
1698
2662
979
2772
1289
2055
2218
1502
2735
2003
1788
2809
1145
2956
1425
2166
2376
1719
2664
1916
1775
2817
1192
2985
1491
2260
2478
1499
2276
1740
1819
2796
1231
2903
1378
2176
2024
1299
2486
1754
1693
2565
1142
3008
1454
2415
2512
1688
2499
1806
1893
2575
1163
3032
1452
2397
2368
1662
2594
1801
1798
2496
1152
2987
1373
2244
2153
1591
2457
1654
1922
2588
1105
2832
1315
2428
2260
1638
2575
1756
1916
2486
1160
2901
1378
2486
2202
1877
2977
1853
2069
2468
950
2607
1040
2344
2223
1835
2704
1730
1998
2386
1071
2922
1389
2415
1979
1814
2822
1746
1990
2423
1208
2893
1145
2538
2478
1780
2294
1612
2121
2273
1071
2890
1121
2549
2378
1901
2570
1523
1851
2153
1100
2809
1299
2706
1943
1767
2775
1782
2286
2504
1467
3103
1339
2546
1698
1691
2646
1538
2121
2431
1428
2835
1058
2678
1953
1761
2583
1620
2216
2216
1181
2877
1210
2651
1727
1782
2717
1588
2158
2363
1659
3134
1063
2625
1782
1478
2276
1562
2318
2405
1509
3134
1305
2499
1481
1769
2536
1557
2386
2386
1698
3176
950
2919
2496
1622
1901
1578
2489
2265
1509
3056
1244
2604
1323
1633
2565
1460
2189
2268
1670
2958
1084
2620
1441
1819
2533
1504
2389
2279
1607
2993
1257
2859
1633
1903
2478
1544
2365
2168
1622
2811
869
2738
1767
1974
2407
1578
2483
2027
1415
2806
1110
2672
1334
1953
2678
1625
2384
2268
1885
2903
1145
2856
1507
1956
2373
1544
2541
2113
1714
3029
1323
2882
1444
2008
2397
1357
2328
2000
1667
2788
900
3061
1979
1793
2027
1572
2525
2029
1730
2825
1129
2756
1326
2058
2496
1567
2344
1958
1872
2874
1213
3011
1701
2226
2250
1525
2433
1646
1604
2672
1260
2924
1341
2242
2368
1491
2483
1911
1869
2756
1113
2977
1630
2231
2160
1541
2588
1845
1691
2599
1208
3014
1546
2365
2428
1693
2363
1683
1735
2407
1118
2672
1110
2662
2601
1596
2510
1772
1738
2378
1103
3161
1733
2457
2223
1664
2504
1599
1819
2583
1118
3003
1523
2378
2242
1735
2599
1704
1751
2426
1223
2817
1260
2583
2328
1656
2457
1559
1785
2515
1221
3121
1601
2523
2061
1604
2549
1680
1940
2397
1236
3113
1418
2515
2124
1622
2412
1460
1974
2567
1263
2990
1328
2468
2048
1599
2515
1685
1969
2397
1355
3231
1481
2378
1906
1764
2544
1746
2412
2657
1362
2664
777
2376
1953
1638
2601
1777
2279
2452
1373
2932
911
2423
2024
1719
2586
1754
2307
2391
1223
2987
1184
2433
1775
1748
2685
1727
2279
2310
1368
3100
1187
2520
1890
1822
2544
1620
2231
2279
1397
2743
956
2801
1911
1780
2583
1567
2300
2381
1486
2985
1189
2796
1861
1740
2441
1449
2179
2213
1431
3042
1192
2667
1748
1780
2496
1614
2310
2234
1544
2943
1163
2901
1940
2003
2423
1339
2265
2095
1399
3150
1318
2670
1567
1751
2420
1494
2326
2121
1418
2840
940
2699
1874
2100
2609
1641
2552
2244
1410
2832
942
2460
1633
2032
2641
1827
2478
2027
1502
2859
1029
2725
1646
1969
2426
1478
2347
2074
1649
2806
1013
2969
1675
1893
2520
1777
2636
2055
1520
2706
785
2701
1675
2100
2531
1601
2489
2090
1549
2720
1171
2987
1651
2092
2496
1612
2397
1937
1609
2804
1037
2649
1507
2197
2399
1588
2546
1940
1617
2607
945
2927
1541
2100
2499
1609
2525
2066
1748
2872
1200
2898
1593
2168
2181
1339
2342
1887
1851
2995
1341
2932
1465
2006
2166
1588
2502
1864
1874
2927
1213
2853
1473
2132
2189
1473
2347
1751
1819
2727
1286
3071
1462
2139
2179
1481
2313
1767
1866
2557
1271
3184
1528
2289
2273
1538
2460
1861
1887
2646
1349
2961
1334
2318
2139
1462
2454
1733
1887
2657
1242
2911
1407
2444
2174
1580
2559
1759
1974
2796
1452
2848
1244
2237
2032
1454
2368
1735
2048
2594
1189
2867
1344
2305
2027
1780
2685
1845
2100
2381
1176
2998
1281
2376
2166
1817
2620
1635
2029
2617
1355
2937
1352
2462
1929
1551
2481
1698
2150
2444
1221
2864
1229
2499
2063
1719
2489
1664
2126
2318
1391
3071
1223
2489
1974
1709
2515
1614
2239
2502
1502
3121
1276
2546
1971
1717
2565
1567
2076
2328
1294
2966
1168
2559
1953
1617
2449
1509
2079
2470
1428
2843
1284
2599
1809
1788
2586
1641
2250
2187
1339
2906
1105
2628
1971
1911
2625
1586
2302
2205
1229
2846
1223
2696
1880
2006
2717
1575
2391
2223
1213
2869
1113
2662
1953
1929
2557
1509
2347
2318
1457
2859
1194
2638
1617
1811
2546
1512
2352
2223
1420
2683
1084
2769
1838
2137
2552
1491
2239
1601
1412
3035
1176
3008
1953
2111
2683
1425
2310
1919
1339
2817
1100
2867
1966
2189
2612
1475
2452
2021
1218
2515
1171
2924
1843
2247
2594
1538
2218
1599
1578
2848
1213
2993
1785
2210
2391
1525
2315
1323
1643
3092
1276
3029
1596
1956
2423
1365
2533
2231
1882
2720
971
2609
1420
1916
2284
1486
2701
2229
1880
2735
1171
2675
1381
1935
2202
1554
2594
2063
2184
2838
1134
2801
1402
1914
2174
1578
2825
1961
1851
2790
1215
2798
1299
2048
2405
1376
2607
1990
1764
2586
1100
2754
1452
2216
2454
1620
2659
1859
1817
2633
1276
2848
1433
2223
2352
1630
2510
1701
2153
2649
1124
2993
1486
2226
2166
1347
2586
1685
1777
2510
1299
2990
1402
2336
2373
1494
2683
1806
2006
2546
1179
2937
1410
2205
2174
1517
2628
1685
2006
2591
1389
2872
1213
2447
2234
1481
2491
1425
2069
2591
1247
2922
1420
2310
1998
1588
2806
1667
2242
2552
1244
2838
1129
2302
2218
1614
2853
1782
2187
2389
1121
2848
1386
2391
2129
1672
2706
1475
2050
2360
1326
2919
1252
2454
2113
1470
2615
1588
2171
2355
1404
3050
1418
2483
2058
1675
2683
1454
2242
2344
1331
2756
1092
2504
2160
1628
2696
1599
2365
2252
1271
2864
1205
2384
2034
1696
2804
1565
2286
2284
1557
3021
1236
2620
2048
1583
2617
1410
2318
2234
1397
2906
1268
2604
1890
1625
2720
1349
2281
2294
1512
2903
1297
2743
2024
1688
2617
1215
2074
1995
1541
3045
1407
2783
1874
1578
2370
1034
2368
2202
1580
3069
1433
2903
2011
1680
2567
1208
2263
2055
1562
2966
1357
2764
1866
1743
2604
1213
2331
2016
1559
2867
1215
2672
1843
1895
2670
1486
2714
2103
1557
2756
1147
2643
1751
1809
2638
1441
2620
1977
1572
2762
1003
2559
1788
1887
2814
1620
2641
1937
1538
2625
935
2475
1722
1882
2822
1730
2649
2006
1738
2573
1013
2594
1641
1903
2643
1449
2601
1932
1730
2657
1176
2754
1614
1950
2814
1525
2588
1885
1811
2709
1192
2872
1719
1885
2494
1181
2397
1782
1809
2827
1512
2930
1754
2069
2074
1019
2788
1877
1785
2701
1307
2714
1664
2116
2289
1478
2927
1790
1985
2693
1231
2746
1229
1903
2712
1462
2625
1735
1998
2683
1137
2859
1654
1977
2349
1134
2441
1625
1803
2615
1431
3095
1785
2074
2376
1160
2378
1738
2097
2712
1554
3006
1614
2097
2208
1226
2594
1628
2108
2704
1475
2961
1439
2048
2370
1412
2738
1607
1895
2336
1016
2552
1449
2276
2604
1693
2953
1664
1906
2360
1171
2654
1570
2405
2426
1651
2830
1617
1974
2258
1210
2670
1383
2357
2504
1551
2704
1533
2045
2313
1200
2699
1344
2313
2607
1709
2735
1541
2079
2121
1037
2704
1481
2349
2447
1793
2916
1538
1987
2108
1218
2688
1431
2399
2281
1599
2714
1525
2334
2402
1593
3032
1418
2263
1990
1213
2489
1517
2449
2499
1788
3079
1292
2250
2021
1368
2578
1523
2428
2481
1706
2924
1305
2205
1843
1158
2402
1557
2544
2499
2006
3066
1441
2263
1441
1234
2714
1436
2389
2294
1780
2872
1313
2604
2187
1559
2557
1394
2412
2168
1646
2638
1184
2454
1919
1738
2851
1433
2465
2176
1593
2691
1355
2439
1759
1656
2790
1502
2428
1940
1460
2580
1376
2680
2126
2003
2675
1276
2391
1859
1546
2643
1344
2667
1964
1814
2804
1423
2415
1782
1625
2809
1452
2670
1953
1824
2515
1244
2523
2003
1738
2654
1263
2657
2082
1919
2594
1410
2465
1796
1698
2630
1362
2544
1764
1961
2657
1415
2609
1835
1712
2544
1247
2783
2042
1864
2615
1557
2468
1633
1822
2483
1037
2533
1775
1895
2494
1326
2670
1893
1803
2515
1441
2743
1709
1987
2633
1507
2662
1761
1956
2596
1491
2628
1530
2145
2570
1323
2714
1772
1916
2494
1294
2767
1612
1756
2402
1376
2649
1782
2071
2604
1334
2667
1743
2111
2433
1362
2680
1654
1966
2468
1370
2701
1575
2003
2433
1402
2588
1504
2134
2617
1470
2856
1764
2226
2407
1341
2725
1633
2045
2349
1331
2851
1601
2024
2436
1483
2601
1423
2034
2328
1255
2853
1782
2132
2318
1383
2691
1614
1990
2216
1572
2790
1580
2423
2454
1504
2536
1268
2192
2378
1465
2819
1575
2431
2313
1189
2628
1370
1877
2090
1593
2969
1628
2549
2423
1381
2651
1231
2011
2260
1575
2930
1654
2499
2365
1397
2633
1273
2118
2076
1310
3074
1893
2318
2195
1567
2628
1168
2365
2300
1410
2746
1355
2302
2139
1488
3021
1738
2693
2252
1488
2478
620
1995
2250
1709
3171
1759
2872
2470
1415
2541
1016
2029
1969
1507
2995
1649
2764
2079
1439
2693
1011
2006
1924
1583
3021
1596
2785
2321
1609
2418
735
2118
1901
1502
3079
1838
3000
2181
1533
2596
858
2192
2139
1790
3045
1481
2725
2195
1544
2538
1118
2436
2084
1612
2772
1352
2515
1824
1575
2966
1599
2515
1950
1591
2478
977
2302
1851
1840
2809
1533
2964
2108
1557
2594
1142
2481
1848
1746
3037
1688
2528
1901
1735
2546
1134
2313
1693
1793
2672
1481
2958
2050
1775
2685
1134
2489
1782
1845
2793
1533
2741
1901
1743
2546
1092
2523
1751
1817
2630
1323
2588
1817
1754
2562
1236
2625
1759
1922
2549
1273
2672
1832
1848
2720
1399
2762
1761
1887
2601
1373
2633
1756
1830
2680
1397
2691
1740
1922
2470
1386
2762
1796
1948
2622
1297
2746
1777
1995
2255
1131
2730
1769
1916
2646
1370
2788
1604
2013
2685
1376
2557
1717
1887
2489
1247
2622
1633
2055
2517
1491
2735
1730
2003
2441
1187
2612
1523
2055
2444
1467
2777
1646
2024
2523
1265
2798
1599
2111
2675
1504
2575
1586
1890
2326
1336
2822
1544
2087
2470
1473
2630
1559
1998
2342
1315
2819
1559
2265
2512
1439
2617
1638
2171
2428
1452
2922
1496
2205
2415
1423
2683
1641
2124
2384
1410
2741
1462
2292
2223
1462
2819
1583
2111
2307
1355
2809
1491
2242
2142
1444
2717
1496
2176
2365
1473
2764
1368
2323
2116
1446
2769
1572
2349
2334
1467
2864
1407
2410
2284
1586
2704
1318
2171
2365
1436
2754
1305
2336
2210
1467
2586
1557
2368
2260
1588
2935
1470
2376
1801
1452
2801
1538
2462
2418
1788
2958
1276
2423
1796
1184
2525
1373
2391
2313
1698
3061
1315
2210
1764
1355
2617
1441
2457
2339
1620
2814
1299
2546
2137
1601
2617
1538
2410
2174
1635
2725
1341
2512
1866
1866
2801
1370
2273
1866
1478
2706
1255
2772
2221
1756
2512
1365
2457
2021
1578
2762
1215
2615
2071
1864
2733
1481
2386
1961
1633
2706
1239
2591
1885
1822
2672
1572
2528
1877
1557
2657
1255
2662
1940
1911
2475
1341
2475
1830
1667
2727
1252
2793
1916
1866
2339
1302
2541
1974
1754
2683
1299
2730
1743
2058
2762
1460
2491
1859
1704
2549
1242
2570
1533
2129
2735
1467
2486
1722
1638
2465
1320
2848
1730
2242
2630
1433
2562
1704
1701
2502
1242
2846
1740
2210
2525
1344
2567
1746
1824
2638
1231
2890
1675
1803
2321
1444
2512
1848
2103
2691
1184
2780
1630
1958
2318
1599
2720
1725
1982
2701
1370
2777
1362
1974
2310
1362
2583
1811
2176
2620
1292
2846
1347
2013
2300
1449
2712
1869
2158
2562
1150
2785
1404
1998
2229
1494
2730
1835
1943
2457
1488
2696
1263
2643
2588
1509
2654
1591
1877
2349
1336
2746
1302
2567
2418
1483
2706
1557
1982
2415
1213
3058
1538
2286
2202
1457
2538
1357
1830
2405
1297
3119
1712
2318
2174
1470
2536
1565
2061
2428
1368
3100
1617
2344
2153
1601
2591
1478
2197
2533
1271
2885
1404
2386
2210
1496
2481
1478
2142
2418
1323
3095
1541
2271
2063
1659
2604
1457
2034
2328
1391
2924
1420
2538
2074
1557
2580
1601
2271
2255
1418
3011
1179
2352
1998
1680
2696
1575
2355
2310
1281
2670
890
2565
2202
1649
2811
1806
2349
2258
1407
2840
1074
2460
1998
1761
2662
1599
2494
2355
1370
2788
977
2292
1759
1793
2843
1943
2801
2397
1368
2706
746
2189
1717
1848
2801
1470
2405
2355
1441
2712
984
2693
1985
1725
2696
1761
2546
2202
1394
2864
1076
2389
1793
1924
2638
1551
2310
2042
1525
2777
1202
2948
1893
1738
2452
1423
2315
1995
1646
3024
1247
2827
1832
1866
2407
1194
2284
2066
1593
3011
1378
2958
1877
1761
2452
1491
2321
2027
1625
2993
1360
2615
1599
1948
2384
1176
2336
2016
1662
2895
1257
2822
1733
1948
2436
1544
2439
1898
1654
2680
1110
2945
1685
1995
2491
1386
2394
1985
1677
2822
1244
2911
1722
1998
2428
1520
2394
1924
1725
2601
1040
2814
1570
2024
2394
1588
2567
1979
1803
2641
1124
2901
1562
2061
2360
1481
2617
1840
1672
3276
1399
2410
1541
2263
2260
1512
2549
1895
1835
2696
1139
2901
1562
1979
2231
1562
2352
1769
1830
2604
1121
2846
1460
2158
2321
1664
2622
1890
1898
2649
1223
2919
1483
2294
2281
1546
2515
1872
1924
2447
1362
3281
1525
2289
2231
1433
2433
1751
2016
2846
1357
2785
1260
2168
2082
1425
2168
1620
2066
2591
1512
3224
1439
2310
1969
1452
2436
1656
2116
2625
1491
3187
1313
2297
1966
1486
2528
1680
2163
2706
1407
3029
1320
2410
1974
1383
2376
1559
2142
2670
1336
3000
1341
2381
1935
1609
2641
1620
1916
2418
1244
2851
1210
2502
2150
1843
2680
1607
2124
2515
1124
2717
1171
2486
2069
2003
2843
1798
2105
1880
803
2840
1229
2819
2460
2263
3000
1704
2042
2029
785
2562
1063
2683
2234
2097
2801
1677
2113
2021
974
2685
1042
2777
2226
2132
2809
1659
2061
1790
840
2675
1145
2953
2326
2281
2906
1617
2105
2003
1116
2817
1226
2772
1937
1916
2489
1433
2145
2226
1596
3108
1302
2633
1557
1725
2363
1423
2331
2318
1596
2993
1205
2641
1688
1893
2389
1460
2510
2510
1625
2851
1200
2654
1565
1738
2292
1609
2415
2150
1817
3113
1202
2659
1601
1830
2139
1457
2454
2126
1740
2888
1126
2699
1357
1751
2460
1617
2528
2334
1843
2843
1005
2643
1572
1916
2281
1520
2478
2281
1759
2764
1215
2819
1475
1935
2276
1701
2394
1701
1935
3074
1184
2911
1680
2160
2250
1515
2523
1961
1588
2657
1265
2964
1546
2234
2415
1512
2444
1835
1698
2701
1040
2811
1578
2210
2271
1496
2418
1764
1659
2709
1284
2974
1496
2226
2405
1541
2504
2074
1835
2622
1189
2790
1433
2268
2166
1654
2701
1845
1901
2664
1084
2777
1239
2281
2328
1614
2628
1811
1987
2670
1103
2935
1520
2323
2195
1604
2470
1646
1869
2601
1218
2911
1257
2202
2111
1565
2578
1887
2011
2441
1131
2977
1268
2263
2137
1628
2712
1932
2042
2515
1271
2956
1215
2347
2092
1664
2528
1649
2279
2738
1242
2940
1229
2405
2105
1683
2636
1635
1971
2523
1323
2924
1271
2654
2137
1593
2646
1730
2000
2318
1142
2869
1145
2373
1890
1712
2678
1717
2252
2594
1315
2948
1192
2617
2032
1625
2426
1444
2092
2370
1355
3119
1297
2565
1966
1727
2489
1415
2048
2355
1355
3019
1310
2733
1956
1746
2717
1617
2021
2294
1470
3011
1221
2762
1945
1780
2465
1302
2160
2305
1331
3079
1344
2877
1958
1625
2470
1473
2040
2163
1431
3003
1208
2741
1901
1885
2357
1362
2389
2247
1425
3058
1260
2848
1793
1751
2389
1355
2260
2192
1580
3137
1223
2830
1819
1893
2544
1389
2286
2171
1444
3079
1315
2838
1743
1893
2483
1336
2239
2158
1428
2678
995
2725
1675
1961
2449
1583
2588
2118
1517
2880
1066
2701
1596
2040
2620
1588
2468
2034
1591
2888
1058
2832
1635
1872
2528
1583
2399
2055
1528
2735
1005
2696
1662
2129
2683
1788
2460
2013
1646
2691
1024
2843
1588
2040
2570
1733
2462
1882
1633
2701
1137
2856
1551
2147
2326
1360
2525
2045
1698
2783
1152
2932
1562
2061
2334
1475
2504
2016
1761
2798
1152
2741
1412
2111
2153
1376
2591
2071
1764
2664
1263
2969
1512
2229
2297
1649
2604
1785
1775
2714
1068
2906
1389
2260
2872
1659
2045
1719
1838
2654
1276
2985
1473
2069
1775
1483
2911
1977
1932
2811
1176
2756
1397
2310
2071
1370
2402
1677
1785
2588
1168
3069
1488
2336
2166
1562
2562
1798
1977
2685
1344
3050
1334
2331
2397
1570
2349
1712
1929
2517
1213
2838
1320
2355
2048
1672
2730
1861
2069
2599
1189
2804
1320
2449
2234
1777
2625
1859
2045
2363
1252
2935
1244
2431
2126
1717
2496
1607
2069
2384
1158
2914
1294
2591
2260
1714
2523
1685
2053
2363
1213
2851
1158
2355
2003
1835
2738
1735
2058
2394
1260
2607
1168
2525
1932
1866
2709
1722
2139
2202
1263
2901
1213
2586
2066
1932
2612
1601
2213
2431
1412
2790
1155
2704
1916
1628
2423
1549
2229
2452
1691
3273
1391
2491
1549
1481
2352
1562
2244
2436
1698
3058
1257
2678
1809
1565
2176
1454
2160
2105
1397
3008
1402
2678
1782
1992
2520
1528
2310
2297
1628
2940
1092
2743
1856
1743
2386
1593
2279
2142
1515
2961
1192
2714
1977
2003
2423
1630
2276
2040
1478
2683
1155
2680
1470
2024
2730
1677
2391
2163
1575
2741
1074
2793
1796
2016
2510
1604
2360
2076
1467
2646
1097
2835
1730
1945
2315
1525
2433
2097
1691
2985
1297
2741
1551
2061
2444
1457
2363
2097
1649
2688
1050
2654
1473
2024
2420
1685
2536
1961
1667
2806
1095
2819
1667
2034
2331
1530
2294
1937
1717
2683
1244
2922
1507
2250
2496
1649
2562
1940
1754
2906
1150
3027
2006
1935
1937
1520
2255
1830
1859
2636
1176
2901
1368
2055
2265
1586
2462
1814
1838
2822
1297
2903
1433
2197
2386
1651
2410
2034
1924
2502
1173
2856
1410
2300
2158
1523
2449
1780
1840
2570
1273
2853
1299
2315
2229
1670
2554
1811
2045
2630
1171
3016
1588
2394
2153
1633
2583
1761
1746
2454
1352
2741
1168
2504
2355
1607
2433
1764
1929
2381
1229
2869
1328
2528
2184
1740
2625
1780
2042
2517
1355
3105
1460
2402
2069
1712
2428
1588
2090
2483
1226
2982
1326
2391
1961
1586
2510
1588
1953
2407
1173
2877
1326
2454
2142
1733
2355
1612
2045
2349
1376
3116
1633
2727
2055
1817
2473
1431
1874
2244
1431
3024
1344
2772
2042
1688
2447
1454
2074
2321
1349
3032
1305
2709
1882
1693
2517
1588
2208
2326
1378
3006
1116
2376
1756
1782
2620
1822
2570
2559
1473
2762
785
2279
1706
1819
2672
1964
2554
2297
1452
2664
725
2580
1830
1817
2591
1712
2449
2242
1355
2804
984
2657
1861
1982
2751
1824
2460
2168
1320
2814
924
2486
1843
2024
2599
1743
2454
2279
1520
2748
1079
2822
1754
1772
2339
1441
2134
2037
1633
3003
1210
2769
1809
1982
2496
1578
2454
2139
1394
2788
1142
2730
1727
2019
2499
1628
2494
2097
1502
2877
1024
2462
1544
2013
2441
1567
2399
2076
1625
2874
1255
2804
1596
1979
2363
1559
2449
2063
1748
2969
1113
2636
1593
2045
2315
1533
2457
2079
1746
2814
1302
3019
1662
1987
2218
1462
2218
1827
1730
2546
1302
3247
1759
2176
2321
1457
2234
1748
1730
2830
1381
2945
1496
2063
2166
1454
2376
1809
1838
2945
1347
2804
1538
2286
2234
1446
2331
1903
1893
2515
1229
3090
1520
2252
2339
1617
2512
1958
1935
2504
1045
2890
1481
2231
2286
1677
2528
1685
1740
2751
1244
2678
1386
2260
2187
1782
2604
1775
1901
2549
1139
2846
1462
2344
2197
1638
2620
1950
2024
2651
1281
2811
1318
2279
2197
1767
2499
1696
1911
2384
1113
2814
1431
2462
2074
1662
2405
1677
1977
2313
1328
3071
1307
2328
2076
1712
2617
1746
2126
2672
1323
2811
1418
2449
2016
1664
2468
1730
2050
2384
1423
2932
1307
2460
2016
1738
2531
1675
2087
2307
1320
2874
1255
2444
1950
1698
2439
1614
2237
2499
1475
2930
1278
2478
1961
1806
2502
1670
2334
2452
1431
2888
1278
2444
1780
1740
2567
1630
2124
2234
1352
2793
1313
2725
2048
1730
2420
1496
2210
2349
1520
2843
1365
2769
1887
1827
2449
1693
2111
1696
1601
3210
1176
2570
1885
2008
2591
1523
2439
2360
1250
2504
1168
2659
1838
1927
2436
1536
2255
1964
1454
2830
1210
2678
1872
2063
2499
1559
2376
2029
1454
2748
1166
2725
1822
2055
2633
1651
2352
1969
1499
2751
1205
2835
1898
2113
2541
1536
2444
2244
1670
2672
1166
2633
1567
1924
2368
1675
2426
1872
1712
2901
1218
2720
1654
2040
2279
1386
2420
2050
1764
2680
1268
2893
1494
1819
2310
1533
2580
2113
1916
2885
1166
2596
1496
2042
2405
1536
2570
2061
1764
2643
1171
2704
1504
1961
2300
1578
2449
1898
1916
2680
1194
2727
1549
2239
2297
1439
2546
1903
1893
2706
1465
3053
1496
2063
2216
1533
2557
1693
1958
2759
1221
2830
1431
2092
2252
1454
2552
1869
1882
2538
1213
2754
1465
2273
2407
1727
2604
1722
1861
2423
1257
2893
1517
2378
2226
1525
2570
1572
1927
2523
1273
3021
1620
2423
2263
1515
2460
1465
1924
2570
1292
2877
1452
2281
2160
1533
2625
1738
2040
2486
1289
2846
1431
2389
2326
1693
2525
1512
1992
2470
1255
2730
1352
2523
2210
1397
2977
2100
1775
2095
1323
2796
1302
2415
2200
1588
2675
1612
2113
2439
1418
2914
1289
2318
2187
1672
2515
1620
2334
2426
1370
2898
1365
2334
1982
1738
2573
1423
2407
2489
1428
2901
1255
2423
1971
1572
2672
1517
2292
2344
1386
2924
1242
2286
1901
1633
2649
1512
2368
2331
1347
2717
1242
2567
2076
1754
2730
1709
2431
2116
1444
2846
1150
2444
1906
1748
2851
1541
2231
2105
1436
2748
1192
2680
1982
1685
2696
1441
2284
2176
1533
2940
1407
2756
1982
1759
2499
1121
2281
2202
1538
2738
1276
2678
1856
1751
2486
1328
2512
2037
1586
2995
1331
2767
1943
1754
2780
1370
2105
1848
1633
2872
1347
2885
1927
1714
2426
1226
2473
2029
1727
2966
1239
2586
1746
1874
2772
1452
2399
1966
1651
2720
1336
2767
1827
1882
2113
1158
2827
2037
1704
2767
1302
2777
1612
1864
2599
1334
2583
1914
1848
2712
1163
2838
1738
1814
2533
1423
2664
1919
1717
2733
1294
2696
1641
2016
2764
1517
2426
1772
1806
2525
1079
2625
1635
2053
2633
1491
2607
1775
1748
2570
1281
2754
1649
2063
2394
1391
2793
1819
1853
2565
1045
2638
1680
2021
2342
1507
2909
1914
1903
2612
1344
2741
1502
2095
2538
1418
2510
1609
1887
2528
1307
2835
1554
2037
2420
1483
2536
1596
2061
2601
1386
2835
1544
2205
2352
1284
2717
1780
2045
2570
1292
2874
1646
2103
2423
1473
2533
1643
2011
2339
1389
2935
1452
2187
2507
1433
2510
1651
2095
2344
1357
2853
1554
2247
2213
1509
2817
1572
2032
2381
1365
2746
1355
2326
2491
1565
2699
1625
2126
2284
1302
2609
1320
2258
2118
1486
2832
1638
2137
2265
1386
2748
1515
2525
2423
1817
2832
1512
2244
2168
1244
2696
1284
2418
2407
1685
2704
1373
2153
2221
1391
2769
1473
2258
1764
1423
2741
1491
2331
2321
1646
2943
1462
2460
2055
1528
2625
1418
2433
2347
1635
2819
1404
2391
1814
1583
2819
1460
2352
2024
1404
2738
1192
2541
2342
1617
2531
1402
2315
2118
1754
2995
1323
2573
2229
1420
2307
1399
2502
2195
1796
2830
1339
2491
1777
1575
2696
1454
2515
2050
1832
2775
1328
2433
1499
1646
2811
1386
2591
2132
1748
2746
1273
2549
1709
1551
2636
1423
2567
2079
1890
2804
1263
2625
1866
1659
2515
1326
2575
2050
1814
2706
1399
2520
1559
1740
2533
1357
2748
2019
1859
2659
1360
2475
1381
1911
2809
1336
2588
1835
1714
2622
1242
2853
2331
2118
2612
1428
2402
1562
1675
2554
1320
2940
2226
1990
2426
1412
2426
1467
1646
2536
1218
2817
1985
1914
2352
1336
2588
1612
1922
2583
1268
2819
1803
2006
2580
1452
2696
1725
1890
2328
1250
2646
1399
2155
2683
1357
2704
1806
2087
2559
1546
2620
1139
1937
2502
1439
2903
1935
2349
2588
1467
2664
1189
2097
2462
1166
2751
1670
1966
2352
1184
2777
1743
2090
2370
1433
2809
1575
2006
2489
1386
2880
1725
2042
2352
1415
2646
1612
2171
2389
1541
2704
1431
2239
2381
1418
2678
1460
2181
2423
1481
2549
1236
2373
2504
1467
2830
1425
2150
2331
1205
3279
2153
1893
2016
1452
2664
1423
2153
2247
1289
2659
1488
2297
2365
1494
2746
1541
2315
2250
1470
2832
1536
2331
2239
1441
2691
1347
2160
2192
1641
2685
1242
2588
2512
1525
2819
1431
2310
2242
1475
2601
1215
2310
2268
1460
2735
1415
2462
2234
1299
3195
1859
1898
1992
1588
2636
1465
2391
2111
1633
2743
1360
2391
2045
1486
2785
1391
2423
2105
1583
2654
1281
2544
2218
1559
2788
1386
2599
2252
1614
2696
1218
2300
2058
1609
2867
1488
2541
1958
1460
2903
1530
2205
1956
1719
2680
1302
2533
2066
1746
2591
1234
2601
2061
1638
2746
1383
2538
1948
1809
2531
1152
2657
1969
1607
2748
1326
2559
1919
1764
2709
1247
2486
1914
1714
2775
1423
2557
1772
1746
2599
1299
2683
1987
1738
2633
1192
2510
1819
1830
2599
1494
2953
2013
1777
2628
1097
2410
1651
1872
2872
1449
2502
1772
1725
2533
1286
2840
1950
1906
2693
1428
2628
1803
1712
2573
1187
2536
1635
1890
2762
1483
2536
1785
1953
2528
1323
2830
1664
1943
2646
1323
2612
1725
1790
2486
1368
2951
1672
1851
2502
1231
2428
1780
2090
2667
1481
3045
1796
1995
2444
1176
2426
1578
1977
2688
1520
2685
1491
2137
2423
1229
2552
1643
2153
2538
1404
2840
1565
2158
2176
1284
2966
1599
1945
2583
1457
2712
1546
2244
2184
1425
2943
1607
2071
2405
1326
2678
1536
2171
1827
1399
3126
1656
2184
2570
1499
2764
1449
2216
2132
1402
2754
1554
2268
2331
1208
2943
1344
2163
2982
1612
2300
1452
2071
2103
1315
2756
1415
2439
2573
1630
2591
1517
2197
2108
1226
2717
1586
2349
1922
1670
3082
1620
2234
2263
1549
2756
1145
2412
2389
1625
2735
1515
2294
2126
1215
2546
1160
2475
2436
1798
2775
1273
2071
2139
1383
2727
1504
2494
1911
1685
2940
1509
2386
2321
1677
2859
1536
2412
1515
1588
2872
1265
2347
2202
1546
2848
1257
2447
1927
1470
2583
1538
2651
2331
1740
3137
1299
2559
2045
992
2118
1399
2502
2339
1848
3074
1373
2368
1717
1483
2580
1441
2439
2129
1824
3042
1250
2531
2090
1651
2465
1423
2444
2042
1680
2699
1129
2601
1866
1756
2722
1370
2483
2069
1554
2649
1166
2699
2061
1885
2777
1454
2305
1798
1425
2554
1281
2817
2074
2016
2649
1370
2418
1777
1554
2743
1444
2706
1806
2045
2683
1378
2483
1922
1712
2625
1210
2641
1612
1953
2696
1436
2601
1827
1630
2678
1145
2764
1956
1895
2423
1454
2481
1775
1777
2583
1205
2817
1698
1932
2481
1423
2617
1898
1864
2638
1265
2754
1530
2008
2533
1449
2678
1914
1974
2699
1310
2691
1334
2082
2596
1457
2756
1864
1874
2630
1116
2709
1578
1948
2399
1520
2659
1956
2132
2651
1234
2756
1362
1877
2255
1373
2657
1756
2076
2709
1383
2714
1223
2108
2344
1365
2762
1893
2181
2738
1244
2796
1307
1851
2260
1586
2804
1935
2158
2594
1271
2706
1223
2090
2407
1596
2596
1614
2121
2546
1058
3187
2069
2037
2019
1504
2538
1591
1940
2394
1452
2846
1281
2512
2457
1331
2447
1381
1764
2376
1320
3111
1998
2706
2336
1475
2407
1273
1649
2179
1320
2990
1738
2657
2323
1625
2470
1323
1754
2237
1491
2861
1276
2683
2313
1609
2822
1672
2163
2323
1331
2953
1208
2252
2147
1575
2573
1567
2292
2507
1289
2769
1331
2365
1964
1628
2662
1622
2315
2357
1425
3027
1347
2352
2011
1656
2483
1554
2412
2292
1386
3056
1315
2357
1945
1788
2783
1659
2349
2315
1420
2696
830
2221
1898
1698
2691
1801
2594
2407
1449
2586
890
2489
1979
1819
2838
1822
2394
2134
1454
2712
1129
2667
1940
1851
2609
1523
2441
2103
1318
2725
1026
2559
1809
1748
2664
1738
2567
2244
1578
2811
890
2410
1903
1935
2580
1462
2360
2195
1580
2958
1486
2835
1780
1809
2523
1457
2244
2027
1667
2919
1223
2651
1685
1761
2376
1454
2347
1966
1551
2717
1247
2937
1806
1866
2541
1462
2273
2003
1693
2964
1397
2901
1890
1916
2294
1302
2226
2006
1675
2811
1460
2874
1680
2037
2426
1423
2318
1990
1754
2525
1008
2869
1832
2155
2454
1475
2559
1838
1565
3357
1649
2431
1425
1932
2134
1297
2297
1906
1796
2717
1179
2856
1643
1964
2334
1714
2620
1940
1743
2657
1234
2751
1538
2153
2405
1704
2562
1877
1793
2397
984
2914
1651
2239
2423
1551
2439
1782
1782
2767
1229
2835
1586
2195
2389
1664
2483
1937
1940
2599
1150
2817
1541
2153
2087
1593
2594
1872
1903
2544
1281
2796
1326
2310
2321
1638
2557
1790
1992
2641
1234
2809
1386
2244
2168
1591
2465
1688
1914
2507
1263
2867
1397
2279
2150
1659
2489
1754
2124
2672
1431
2998
1504
2363
2079
1641
2462
1769
2045
2265
1292
2964
1299
2360
2063
1670
2504
1559
1987
2454
1339
2982
1412
2462
2076
1512
2297
1601
1945
2166
1502
3213
1457
2457
2069
1738
2594
1733
2223
2544
1344
2751
1142
2394
2074
1759
2586
1588
2208
2832
1200
2433
1341
2496
1880
1835
2643
1675
2071
2244
1328
2811
1263
2651
2037
1790
2559
1722
2231
2200
1365
2935
1226
2433
1919
1971
2546
1609
2050
1961
1502
3032
1231
2612
1948
1882
2475
1643
2294
2092
1286
2809
1273
2701
1843
1856
2636
1402
2355
2969
1460
2460
1226
2646
1822
1893
2302
1683
2347
1874
1551
3150
1268
2622
1793
2024
2546
1670
2242
1940
1593
2827
1087
2733
1801
1969
2460
1693
2370
1948
1654
2940
1250
2735
1593
1927
2378
1491
2454
2213
1701
2746
1092
2727
1580
1790
2205
1517
2510
2150
1651
2840
1334
2691
1415
1961
2391
1591
2439
2137
1872
2735
1074
2722
1580
2132
2331
1499
2447
1937
1693
2869
1415
2859
1517
2263
2441
1439
2399
1977
1706
2536
1108
2998
1830
2265
2307
1617
2468
1701
1635
2722
1218
2809
1441
2158
2318
1633
2570
1908
1840
2651
1029
2714
1425
2137
2150
1575
2565
1840
1814
2630
1242
2945
1488
2386
2365
1630
2499
1688
1790
2628
1252
2969
1486
2418
2336
1662
2580
1790
1924
2588
1150
2861
1341
2247
2079
1554
2499
1646
1919
2583
1229
2951
1439
2436
2184
1596
2573
1706
1882
2460
1307
3087
1402
2447
2195
1622
2386
1454
1953
2525
1200
2956
1347
2452
2155
1583
2517
1793
2087
2507
1347
2919
1231
2533
2124
1651
2704
1764
1992
2370
1158
2733
1118
2410
1953
1677
2851
1985
2200
2415
1326
2877
1053
2284
1890
1806
2762
1751
2208
2389
1252
2890
1250
2544
1940
1827
2426
1481
2496
2533
1452
3111
1079
2578
2006
1817
2355
1423
2468
2399
1194
2861
1058
2321
1680
1832
2717
1538
2168
2231
1310
3014
1410
3066
2166
1693
2307
1152
1859
2200
1557
3161
1533
3090
1908
1591
2357
1292
1987
2171
1567
3016
1200
2722
1727
1848
2764
1712
2297
2239
1528
2888
1097
2769
1835
1877
2580
1633
2384
2153
1470
2877
1087
2735
1740
1851
2418
1397
2294
2142
1462
2869
1171
2559
1596
2027
2599
1533
2460
2126
1515
2898
1058
2725
1761
2034
2412
1457
2538
2163
1528
2856
1194
2943
1659
1882
2567
1486
2171
1971
1643
2943
1223
2937
1785
2069
2326
1465
2384
1945
1633
2822
1045
2714
1509
2019
2331
1578
2712
2132
1767
2877
1053
2754
1538
2053
2378
1580
2565
1943
1583
2643
1087
2998
1528
2103
2780
1588
2163
1890
1672
2699
1184
2804
1467
2195
2273
1462
2641
2082
1761
2693
1168
2972
1559
2150
2187
1449
2489
1790
1733
2769
1131
2780
1412
2268
2336
1523
2573
1782
1654
2756
1313
2995
1433
2234
2507
1659
2360
1845
1987
2720
1244
2964
1504
2284
2029
1486
2685
1950
1950
2544
1037
2932
1381
2139
2195
1646
2389
1638
2016
2617
1092
2901
1391
2349
2166
1685
2746
1835
1895
2499
1236
2919
1313
2496
2292
1743
2696
1714
1814
2405
1076
2775
1166
2465
2342
1641
2489
1701
1885
2389
1281
2995
1373
2620
2310
1840
2664
1620
1987
2405
974
2699
1271
2580
2263
1866
2699
1709
1998
2263
1089
2898
1239
2342
1733
1607
2680
1633
2145
2583
1488
3281
1268
2507
2252
1399
2000
1559
2192
2473
1544
3090
1179
2489
1898
1746
2662
1662
2184
2328
1239
2775
1155
2670
1927
1698
2573
1614
2213
2344
1591
3237
1194
2557
1782
1454
2271
1628
2433
2528
1680
3108
1281
2604
1423
1538
2496
1544
2370
2475
1764
3150
1142
2544
1467
1575
2410
1486
2410
2468
1617
2951
1074
2636
1785
1817
2507
1625
2208
2150
1533
2769
1108
2856
1880
2055
2607
1549
2281
2053
1452
2775
1145
2775
1646
1953
2528
1580
2384
2040
1441
2867
1118
2720
1803
2113
2307
1444
2344
2053
1475
2701
1221
2969
1796
2242
2720
1754
2381
1882
1491
2696
1076
2853
1793
2242
2381
1381
2310
1937
1565
2693
1124
2924
1641
2006
2289
1544
2441
1898
1754
2935
1194
2840
1544
2187
2405
1470
2428
1985
1727
2683
1084
2864
1449
2006
2300
1625
2468
1890
1903
2827
1055
2832
1454
1966
2084
1559
2617
2074
2029
2790
1247
2932
1231
2142
2596
1775
2544
1811
1882
2735
1166
2937
1523
2426
2368
1620
2693
2037
1903
2628
1318
3032
1273
2145
2116
1454
2360
1620
1769
2399
948
2754
1257
2315
2171
1460
2510
1811
1937
2565
1163
2840
1129
2163
2095
1643
2538
1685
2111
2806
1328
3221
1838
2622
2118
1588
2418
1517
1811
2386
1187
3179
1733
2630
2097
1730
2525
1475
1785
2292
1334
2798
832
2599
2328
1649
2601
1691
2129
2491
1276
3308
1433
2210
1872
1617
2457
1630
2050
2370
1278
2756
1040
2733
2187
1712
2633
1790
2205
2360
1305
2880
1137
2688
2058
1772
2662
1662
2195
2355
1208
2885
1142
2504
1890
1738
2570
1696
2386
2541
1580
3166
1055
2281
1743
1712
2486
1596
2323
2357
1284
3063
1284
2415
1722
1764
2494
1662
2300
2229
1347
2625
798
2722
2021
1971
2573
1609
2399
2336
1349
2853
1131
2704
1853
1877
2517
1575
2347
2286
1538
3037
1210
2725
1751
1901
2662
1617
2255
2137
1381
2798
1108
2678
1696
1827
2368
1525
2229
1985
1580
3092
1428
3029
1856
2016
2399
1294
2132
1990
1583
3035
1381
3132
1845
1859
2289
1210
2061
1979
1638
3210
1481
2930
1701
1735
2006
1179
2137
2037
1701
3011
1544
3237
1838
1966
2103
1053
2040
1667
1659
3137
1502
3187
1727
2160
2528
1617
2559
2042
1625
2557
499
2378
1407
2231
2817
2061
3008
2328
1677
2407
491
2441
1315
2142
2696
1943
2867
2139
1599
2599
858
2601
1402
2210
2525
1977
2840
1948
1659
2454
546
2510
1334
2258
2580
2095
3040
2040
1557
2176
331
2489
1420
2428
2748
2079
3037
2061
1643
2504
654
2399
1431
2502
2504
1906
2651
1848
1814
2549
1155
3082
1431
2116
2048
1425
2150
1538
2006
2880
1578
3252
1441
2276
2016
1242
2147
1641
2050
2738
1523
3350
1475
2166
1995
1407
2297
1675
2016
2746
1488
3027
1376
2326
1995
1439
2407
1845
2116
2638
1567
3168
1418
2294
1838
1462
2439
1614
2092
2903
1691
2964
1278
2365
1827
1357
2328
1641
2100
2552
1423
3048
1391
2394
1998
1693
2496
1641
2166
2675
1373
2712
1292
2462
1908
1685
2428
1680
2118
2132
1215
2872
1307
2641
2048
1929
2654
1502
2126
2384
1260
2709
1168
2670
2234
2132
2714
1685
2027
1664
1019
2969
1299
2733
2331
2221
2683
1759
2176
1880
1336
2964
1273
2591
1746
1685
2355
1454
2247
2328
1481
2704
1137
2654
1845
1877
2536
1633
2321
2192
1633
2948
1129
2638
1809
1740
2489
1572
2342
2336
1562
2853
1370
2533
1546
1717
2328
1528
2465
2433
1796
2932
1278
2565
1612
1788
2250
1499
2457
2223
1838
2964
1236
2720
1662
1866
2426
1517
2394
2137
1698
2888
1263
2751
1730
1840
2297
1572
2441
2032
1628
2699
1168
2696
1683
1969
2286
1457
2218
1806
1793
2898
1289
2819
1717
2108
2473
1667
2496
1874
1670
2696
1179
2780
1583
2116
2573
1431
2685
2447
1565
2426
1145
2636
1551
2095
2360
1496
2454
1924
1740
2654
1297
2874
1654
2210
2436
1688
2478
1688
1743
2625
1150
2785
1567
2197
2294
1481
2541
1725
1698
2664
1263
2746
1467
2255
2415
1646
2531
1649
1782
2552
1163
2890
1625
2297
2331
1520
2654
1919
1788
2468
1389
2961
1512
2258
2184
1488
2591
1809
2082
2559
1173
2806
1423
2258
2265
1688
2426
1549
2444
2709
1242
2880
1307
2179
2145
1562
2762
1817
2040
2549
1339
2746
1247
2142
1908
1460
2680
1788
2250
2489
1326
2880
1236
2258
2092
1528
2630
1625
2121
2483
1318
2767
1221
2360
2166
1659
2804
1851
2313
2428
1436
2958
1197
2355
2189
1612
2680
1649
2103
2250
1226
2767
1373
2591
2113
1664
2599
1273
2027
2244
1328
2977
1418
2651
2134
1638
2735
1478
2176
2436
1412
2911
1323
2552
2034
1635
2804
1609
2205
2192
1357
2819
1187
2462
1961
1670
2433
1084
2158
2192
1475
3179
1654
2909
2147
1656
2237
958
2271
2221
1536
3071
1326
2672
2053
1746
2646
1386
2376
2145
1441
2922
1268
2638
1964
1662
2657
1452
2344
2166
1583
2859
1231
2748
1872
1523
2885
1533
1922
1911
1588
2733
1236
2748
1856
1759
2806
1654
2651
2171
1559
2714
958
2321
1775
1948
2701
1549
2654
2116
1570
2651
1097
2620
1827
1895
2649
1541
2617
1924
1496
2696
1087
2525
1727
1974
2528
1410
2840
2063
1620
2733
1168
2730
1696
1869
2675
1365
2496
1866
1696
2846
1381
2945
1756
1790
2321
882
2226
1880
1935
3090
1654
3134
1827
1874
2502
1236
2370
1793
1798
2706
1289
2725
1617
2024
2373
1152
2580
1856
1911
2762
1431
2974
1735
1950
2208
1150
2693
1806
1914
2801
1242
2772
1520
1885
2552
1444
2670
1827
1790
2549
1252
2683
1504
1969
2441
1544
2748
1754
1906
2478
1116
2675
1599
2247
2604
1523
2693
1748
1990
2468
1179
2827
1544
2153
2693
1614
2630
1601
1874
2431
1229
2735
1523
2124
2279
1444
2830
1743
2029
2489
1229
2712
1570
2234
2310
1536
2819
1701
2037
2441
1187
2738
1488
2292
2407
1541
2714
1580
2050
2384
1328
2788
1436
2237
2260
1496
2811
1601
2097
2412
1313
2672
1286
2231
2478
1609
2685
1685
2181
2260
1357
2859
1418
2307
2452
1565
2528
1481
2202
2326
1433
2762
1478
2334
1940
1509
2872
1488
2132
2226
1410
2893
1533
2328
1961
1320
2609
1533
2323
2499
1756
2843
1423
2428
1924
1473
2772
1457
2302
2315
1596
2977
1341
2407
2643
1475
2092
1391
2292
2013
1441
2730
1286
2428
2171
1701
2811
1575
2389
2223
1593
2840
1457
2431
2121
1856
2801
1431
2195
1887
1439
2641
1344
2512
2029
1803
2657
1328
2355
1880
1410
2633
1441
2693
2019
1798
2827
1441
2397
1961
1562
2696
1328
2769
2265
1780
2646
1494
2423
1903
1565
2512
1294
2599
1890
1922
2748
1355
2420
1835
1646
2620
1255
2725
2024
1782
2452
1284
2622
2100
2082
2882
1404
2397
1026
1389
2538
1307
2909
2360
2260
3058
1299
2494
1601
1607
2460
1334
2646
1851
1706
2512
1221
2570
1740
2040
2746
1457
2612
1824
1940
2588
1215
2759
1796
1769
2468
1517
2714
1656
2003
2751
1255
2730
1641
1780
2447
1320
2725
1853
2050
2565
1252
2683
1439
1832
2580
1357
2775
1908
2006
2557
1402
2741
1546
2055
2583
1399
2651
1691
2021
2323
1313
2764
1515
2260
2544
1244
2751
1546
1908
2462
1381
2798
1583
2118
2423
1271
2704
1572
2082
2612
1399
2738
1507
2053
2507
1465
2733
1562
2097
2491
1176
2945
2150
2032
2092
1397
2546
1244
1806
2200
1454
2977
1898
2554
2483
1373
2607
1339
2105
2363
1507
2840
1365
2158
2384
1420
2751
1565
2405
2439
1299
2659
1318
1935
2250
1515
2832
1591
2360
2331
1478
2856
1446
2195
2218
1449
2811
1570
2402
2192
1386
2804
1284
2048
2160
1601
2930
1630
2685
2360
1412
2825
1302
2040
2066
1567
2814
1399
2307
1998
1517
2670
1210
2567
2250
1415
2720
1449
2433
2029
1633
2746
1410
2727
2205
1620
2811
1326
2420
2084
1701
2363
942
2641
2053
1588
2901
1368
2460
1958
1672
2825
1431
2788
2061
1528
2643
1168
2412
1922
1672
2909
1499
2612
2090
1751
2772
1205
2515
1985
1649
2835
1402
2402
1898
1588
2546
1250
2622
1919
1688
2764
1381
2562
1987
1782
2704
1247
2591
1790
1643
2764
1355
2491
1853
1677
2699
1368
2617
1851
1890
2738
1355
2667
1914
1759
2657
1247
2531
1790
1885
2412
1184
2874
1901
1717
2725
1376
2748
1869
1853
2441
1158
2651
1824
1853
2937
1446
