Tong,Dang Khoa,1489,10/14/2019,3:38:46 PM,10/14/2019,4:04:46 PM
1894
1901
1900
1905
1915
1933
1953
1956
1967
1982
2000
2033
2051
2072
2095
2114
2134
2131
2134
2124
2110
2086
2057
2035
2000
1981
1967
1944
1940
1939
1934
1930
1917
1917
1911
1914
1909
1900
1893
1902
1901
1902
1904
1895
1904
1902
1897
1893
1900
1892
1895
1901
1895
1897
1897
1896
1890
1900
1900
1894
1896
1902
1900
1901
1907
1899
1903
1912
1907
1909
1913
1907
1911
1909
1905
1907
1903
1903
1893
1898
1914
1928
1939
1940
1943
1955
1967
1964
1952
1927
1921
1906
1923
1923
1934
1947
1941
1933
1930
1927
1921
1917
1924
1922
1863
1812
1880
2294
3059
3791
4095
4095
3809
3270
2713
2205
2004
1901
1857
1842
1831
1790
1776
1790
1814
1801
1806
1808
1803
1800
1804
1808
1817
1824
1828
1831
1842
1842
1847
1853
1862
1868
1871
1892
1880
1900
1901
1906
1918
1931
1952
1957
1988
2006
2016
2051
2066
2088
2112
2120
2119
2113
2097
2071
2048
2025
2006
1981
1972
1951
1935
1935
1921
1919
1919
1916
1906
1899
1909
1902
1901
1904
1892
1893
1900
1897
1897
1899
1898
1904
1900
1904
1903
1901
1901
1899
1898
1886
1904
1901
1907
1913
1903
1906
1907
1914
1908
1918
1913
1912
1921
1916
1918
1926
1928
1922
1924
1927
1920
1920
1923
1925
1926
1927
1931
1922
1924
1928
1923
1931
1942
1967
1982
1982
1986
1985
1979
1982
1977
1961
1943
1940
1949
1956
1969
1964
1963
1958
1964
1957
1940
1937
1959
1937
1863
1847
2005
2511
3340
4014
4095
4095
3679
3116
2522
2157
1999
1904
1891
1871
1833
1816
1819
1822
1842
1837
1838
1831
1829
1831
1826
1834
1838
1839
1840
1848
1848
1860
1868
1875
1878
1883
1888
1900
1912
1909
1926
1930
1939
1942
1972
1980
1997
2018
2033
2053
2073
2110
2112
2115
2117
2112
2091
2084
2064
2024
2013
2001
1978
1960
1957
1944
1937
1937
1939
1928
1931
1928
1921
1923
1924
1923
1922
1925
1916
1919
1918
1912
1916
1921
1911
1912
1919
1919
1929
1924
1921
1928
1922
1929
1926
1920
1927
1930
1925
1927
1938
1931
1932
1940
1934
1935
1942
1948
1942
1950
1945
1942
1953
1952
1951
1964
1960
1964
1953
1961
1956
1958
1970
1952
1952
1953
1951
1941
1964
1975
1997
2002
2006
2014
2009
2022
2005
2002
1990
1972
1973
1980
2000
2000
2005
1988
1995
1997
1991
1970
1991
1997
1925
1879
1941
2298
3038
3801
4095
4095
3927
3374
2793
2300
2100
1969
1943
1925
1899
1860
1850
1857
1873
1875
1873
1872
1870
1864
1856
1871
1877
1874
1886
1885
1886
1903
1904
1907
1908
1916
1920
1918
1935
1934
1941
1950
1965
1970
1981
1999
2013
2033
2054
2069
2085
2104
2122
2135
2131
2131
2126
2106
2093
2065
2042
2028
2015
1997
1976
1973
1959
1961
1952
1950
1946
1943
1948
1942
1942
1935
1938
1938
1933
1940
1931
1929
1932
1936
1931
1927
1928
1927
1934
1931
1927
1924
1934
1932
1939
1943
1934
1941
1943
1943
1940
1944
1952
1942
1946
1950
1944
1944
1949
1950
1949
1961
1961
1958
1968
1963
1948
1961
1962
1959
1959
1967
1968
1966
1968
1965
1954
1982
1972
1952
1961
1974
1997
2005
2012
2007
2013
2022
2012
1984
1977
1971
1979
1986
1989
1989
1996
1992
1991
1984
1974
1963
1978
1989
1916
1869
1960
2351
3128
3839
4095
4095
3808
3297
2741
2259
2069
1964
1916
1927
1908
1859
1850
1866
1877
1876
1878
1869
1871
1868
1868
1858
1870
1876
1873
1899
1906
1898
1900
1917
1917
1937
1948
1955
1958
1961
1987
1987
2008
2027
2046
2058
2067
2082
2091
2124
2141
2156
2176
2171
2172
2175
2164
2149
2129
2105
2077
2045
2034
2013
2000
2003
1988
1981
1969
1972
1971
1973
1971
1971
1975
1974
1969
1970
1966
1966
1974
1967
1952
1961
1963
1959
1960
1958
1971
1968
1975
1977
1965
1978
1980
1961
1961
1961
1963
1974
1975
1971
1967
1962
1964
1962
1973
1968
1959
1973
1966
1974
1977
1965
1965
1982
1994
2018
2021
2015
2025
2037
2041
2027
1999
1984
1990
1998
2015
2018
2021
2030
2018
2006
2010
2014
2004
2000
2005
1933
1888
1993
2430
3210
3860
4095
4095
3623
3175
2719
2281
2112
2002
1931
1947
1949
1904
1889
1908
1928
1928
1932
1943
1932
1930
1922
1928
1947
1956
1950
1950
1958
1958
1971
1983
1990
1988
2003
2011
2022
2031
2048
2063
2065
2079
2091
2099
2117
2130
2149
2162
2181
2205
2208
2210
2203
2197
2181
2150
2131
2090
2054
2032
2013
2002
1993
1992
1978
1977
1990
1987
1987
1973
1970
1984
1983
1983
1975
1966
1967
1970
1973
1970
1967
1967
1979
1978
1966
1973
1971
1961
1980
1981
1961
1965
1973
1967
1968
1974
1961
1954
1972
1972
1968
1976
1981
1974
1973
1985
1966
1965
1967
1947
1950
1979
1995
2005
2016
2020
2016
2013
2016
1991
1979
1970
1978
1991
1995
1990
1983
1972
1985
1985
1961
1945
1948
1957
1916
1866
1909
2303
3091
3804
4095
4095
3683
3183
2733
2264
2065
1942
1880
1892
1889
1842
1820
1834
1866
1856
1844
1848
1855
1858
1862
1862
1863
1863
1864
1875
1881
1884
1896
1908
1914
1926
1933
1939
1939
1954
1965
1973
1998
2009
2016
2041
2063
2071
2102
2123
2142
2166
2178
2176
2159
2159
2134
2102
2076
2040
2012
1998
1989
1965
1946
1936
1937
1935
1937
1938
1927
1930
1931
1925
1931
1936
1933
1931
1931
1921
1935
1929
1926
1934
1930
1927
1916
1920
1924
1925
1928
1940
1926
1926
1934
1925
1925
1926
1936
1929
1932
1930
1933
1939
1940
1943
1937
1938
1937
1935
1935
1928
1926
1932
1944
1958
1986
1982
1975
1995
1992
1991
1988
1971
1957
1948
1956
1959
1967
1985
1978
1967
1974
1958
1960
1946
1949
1955
1891
1849
1887
2247
3027
3775
4095
4095
3872
3315
2802
2280
2060
1941
1885
1875
1869
1836
1816
1823
1849
1833
1828
1834
1831
1831
1835
1841
1841
1849
1854
1857
1866
1880
1877
1886
1896
1900
1910
1918
1926
1933
1939
1952
1962
1974
1997
2012
2031
2045
2067
2102
2132
2144
2161
2160
2150
2135
2122
2097
2058
2045
2017
1990
1980
1966
1946
1942
1949
1933
1931
1933
1928
1918
1927
1931
1916
1927
1919
1913
1912
1915
1913
1913
1920
1921
1919
1922
1929
1917
1916
1913
1914
1917
1920
1921
1909
1915
1926
1919
1930
1932
1915
1921
1930
1924
1926
1935
1931
1931
1945
1940
1931
1951
1947
1936
1950
1945
1950
1957
1942
1949
1940
1949
1960
1942
1959
1942
1943
1945
1938
1944
1960
1990
1995
1997
2005
2006
2008
2013
1987
1972
1963
1962
1975
1986
2002
1991
1985
1980
1969
1969
1955
1963
1979
1919
1865
1873
2157
2865
3660
4095
4095
4060
3479
2937
2371
2114
1981
1920
1902
1885
1856
1829
1839
1856
1857
1854
1851
1853
1844
1838
1855
1855
1861
1869
1874
1881
1877
1890
1886
1893
1905
1915
1917
1920
1940
1933
1956
1963
1969
1988
1997
2021
2039
2063
2088
2109
2135
2154
2162
2161
2164
2144
2133
2118
2082
2056
2030
2008
1993
1982
1979
1960
1959
1955
1944
1951
1938
1937
1938
1933
1939
1934
1937
1935
1926
1934
1928
1926
1927
1925
1918
1929
1929
1930
1925
1930
1939
1924
1938
1926
1927
1936
1931
1934
1933
1935
1943
1941
1944
1943
1938
1939
1939
1943
1947
1949
1956
1950
1953
1959
1949
1953
1958
1954
1949
1948
1959
1961
1963
1961
1946
1941
1958
1952
1959
1959
1974
1988
1996
2003
1995
2013
2001
1991
1984
1955
1953
1968
1978
1989
2002
1999
1981
1985
1978
1977
1955
1982
1975
1906
1863
1927
2304
3071
3838
4095
4095
3918
3356
2791
2297
2082
1961
1925
1905
1889
1860
1842
1840
1866
1863
1857
1868
1870
1847
1857
1859
1852
1865
1883
1882
1882
1897
1888
1897
1911
1917
1920
1928
1931
1932
1946
1957
1959
1982
2006
2017
2037
2055
2070
2089
2107
2141
2150
2166
2174
2155
2150
2139
2106
2078
2059
2040
2016
2006
1992
1981
1981
1976
1965
1969
1969
1961
1971
1955
1951
1963
1951
1942
1941
1948
1938
1955
1953
1944
1949
1941
1943
1943
1946
1953
1953
1953
1951
1950
1954
1960
1963
1955
1959
1955
1949
1957
1959
1961
1959
1970
1964
1967
1971
1966
1964
1967
1981
1969
1972
1976
1964
1979
1979
1973
1966
1970
1969
1968
1974
1972
1976
1978
1973
1972
1974
1975
1972
1970
1979
1980
2001
2015
2013
2028
2041
2039
2035
2021
2003
1992
1998
2006
2010
2024
2020
2018
2008
2020
1998
2003
1997
2018
1991
1921
1895
2043
2583
3398
4056
4095
4095
3710
3194
2591
2214
2063
1972
1949
1925
1913
1866
1867
1891
1888
1880
1892
1885
1879
1889
1884
1885
1892
1902
1906
1909
1926
1925
1919
1930
1939
1937
1959
1958
1959
1970
1985
1989
1993
2017
2028
2045
2062
2083
2099
2112
2149
2164
2182
2197
2191
2184
2172
2146
2121
2100
2075
2063
2035
2018
2018
1999
2002
2000
1989
1981
1980
1969
1970
1974
1973
1973
1968
1970
1970
1971
1967
1961
1966
1961
1965
1966
1967
1962
1971
1969
1967
1966
1966
1967
1965
1974
1963
1969
1973
1974
1975
1975
1976
1975
1976
1970
1978
1972
1982
1982
1973
1981
1976
1981
1984
1988
1982
1978
1986
1974
1977
1984
1984
1980
1989
1985
1983
1988
1988
1977
1983
1980
1982
1987
1978
1974
1980
1982
1997
2015
2018
2024
2029
2033
2037
2028
2004
1997
1978
1991
2001
2005
2018
2007
2009
2001
1995
1991
1975
2000
1990
1921
1879
1958
2369
3145
3864
4095
4095
3842
3308
2736
2266
2081
1967
1935
1915
1891
1862
1837
1860
1879
1864
1869
1867
1864
1860
1866
1867
1871
1881
1880
1882
1881
1887
1891
1895
1900
1909
1912
1924
1932
1932
1944
1953
1953
1970
1978
1995
2020
2028
2052
2069
2083
2117
2134
2143
2147
2140
2128
2115
2092
2068
2040
2021
2005
1992
1980
1960
1950
1942
1936
1943
1934
1940
1936
1931
1931
1927
1928
1932
1934
1920
1922
1921
1922
1921
1924
1920
1912
1928
1924
1920
1920
1925
1923
1924
1929
1923
1922
1934
1939
1928
1939
1941
1935
1942
1939
1940
1938
1943
1942
1934
1940
1938
1940
1949
1939
1953
1949
1950
1945
1947
1947
1944
1942
1939
1953
1945
1941
1953
1940
1950
1955
1945
1944
1959
1977
1983
1993
1993
1999
1997
2002
1994
1969
1955
1951
1964
1983
1995
1988
1982
1975
1981
1968
1956
1956
1981
1952
1886
1884
2089
2685
3491
4077
4095
4095
3546
3043
2456
2138
2006
1937
1917
1904
1870
1834
1837
1850
1851
1845
1863
1864
1857
1846
1851
1850
1864
1874
1876
1879
1891
1898
1897
1901
1903
1912
1922
1935
1941
1944
1944
1954
1966
1970
1999
2015
2029
2051
2074
2095
2116
2129
2142
2147
2141
2147
2120
2097
2080
2054
2030
2017
2000
1982
1970
1962
1959
1959
1966
1948
1954
1941
1946
1946
1947
1951
1947
1957
1946
1943
1949
1935
1946
1952
1946
1953
1955
1952
1954
1970
1956
1953
1959
1956
1961
1958
1974
1964
1972
1995
1966
1974
1978
1975
1975
1979
1981
1971
1986
1987
1985
1979
1993
1989
1991
2000
1991
1991
1989
1995
2000
2005
2006
2001
2003
2002
2004
1990
1992
1995
2020
2036
2041
2049
2056
2056
2057
2045
2022
2009
2014
2026
2036
2049
2034
2030
2024
2023
2032
2023
2002
2027
1992
1936
1922
2099
2693
3457
4044
4095
4037
3458
3051
2544
2204
2065
1963
1947
1956
1931
1890
1890
1912
1926
1910
1903
1919
1913
1901
1910
1921
1926
1923
1922
1925
1931
1948
1952
1946
1950
1965
1973
1988
1995
1997
1998
2014
2027
2031
2052
2066
2081
2097
2106
2133
2149
2177
2192
2195
2194
2178
2162
2137
2106
2080
2061
2028
2014
2006
1987
1970
1976
1966
1954
1959
1956
1948
1953
1964
1945
1946
1939
1935
1926
1937
1938
1939
1952
1946
1943
1941
1941
1940
1946
1935
1940
1933
1931
1941
1924
1941
1938
1925
1935
1923
1926
1931
1934
1937
1927
1942
1940
1937
1940
1938
1927
1928
1934
1936
1940
1941
1929
1935
1936
1936
1937
1924
1936
1949
1961
1980
1980
1979
1995
1984
1980
1974
1953
1949
1946
1958
1965
1974
1980
1959
1939
1954
1942
1944
1935
1940
1916
1857
1823
1966
2519
3317
3936
4095
4087
3493
3068
2549
2150
1992
1892
1856
1870
1862
1805
1790
1814
1815
1808
1819
1827
1821
1812
1822
1822
1839
1832
1850
1851
1863
1862
1865
1872
1869
1887
1884
1897
1898
1914
1922
1935
1953
1958
1971
1985
1997
2013
2037
2057
2090
2108
2118
2119
2114
2104
2087
2068
2042
2007
1981
1969
1947
1935
1922
1914
1909
1898
1903
1893
1898
1899
1895
1893
1898
1889
1897
1892
1888
1893
1892
1889
1895
1900
1893
1895
1888
1890
1889
1894
1890
1896
1890
1889
1905
1889
1898
1901
1899
1909
1904
1909
1904
1904
1908
1899
1908
1906
1915
1911
1913
1917
1913
1922
1913
1919
1919
1919
1923
1925
1925
1926
1924
1915
1919
1916
1924
1917
1929
1920
1914
1927
1936
1961
1963
1978
1970
1973
1982
1964
1959
1947
1933
1934
1935
1951
1960
1965
1954
1937
1946
1945
1923
1941
1947
1886
1843
1870
2194
2939
3686
4095
4095
3862
3327
2827
2307
2065
1938
1877
1870
1860
1835
1799
1814
1836
1826
1820
1821
1829
1819
1818
1824
1822
1835
1850
1838
1854
1858
1857
1865
1874
1882
1878
1891
1898
1899
1919
1935
1929
1950
1958
1970
1993
2005
2036
2055
2078
2103
2108
2139
2139
2132
2135
2105
2078
2049
2021
2005
1982
1966
1953
1941
1931
1932
1927
1922
1913
1918
1918
1912
1923
1912
1916
1909
1918
1912
1892
1916
1900
1901
1907
1900
1899
1907
1905
1905
1902
1902
1906
1905
1909
1901
1906
1904
1904
1909
1915
1919
1913
1916
1920
1911
1927
1927
1907
1923
1935
1921
1926
1934
1913
1929
1939
1928
1916
1933
1925
1920
1938
1934
1934
1940
1945
1929
1939
1943
1930
1931
1925
1926
1939
1957
1969
1971
1982
1989
1986
1984
1970
1954
1947
1944
1953
1962
1972
1970
1963
1959
1961
1952
1954
1945
1962
1940
1861
1856
2046
2623
3436
4041
4095
4095
3552
3074
2485
2134
2001
1907
1882
1878
1852
1812
1816
1834
1845
1824
1839
1829
1831
1834
1829
1840
1839
1855
1846
1860
1859
1862
1873
1879
1882
1882
1902
1904
1913
1918
1928
1925
1941
1967
1962
1978
2006
2021
2040
2062
2082
2094
2121
2138
2124
2116
2105
2081
2059
2033
2004
1993
1974
1958
1951
1931
1921
1930
1925
1922
1918
1916
1916
1913
1916
1916
1910
1904
1906
1891
1897
1907
1901
1905
1905
1901
1903
1906
1904
1901
1905
1904
1902
1906
1903
1897
1902
1908
1915
1913
1909
1913
1897
1912
1910
1913
1923
1913
1916
1923
1916
1919
1921
1912
1925
1921
1916
1920
1926
1922
1928
1925
1919
1922
1934
1925
1932
1939
1931
1945
1934
1933
1937
1930
1925
1916
1930
1937
1959
1979
1971
1980
1985
1988
1983
1979
1950
1940
1941
1945
1964
1975
1976
1968
1967
1955
1955
1958
1942
1969
1949
1883
1852
1958
2418
3215
3907
4095
4095
3754
3224
2631
2200
2025
1925
1900
1874
1864
1823
1812
1828
1842
1839
1837
1837
1829
1826
1836
1835
1841
1843
1852
1847
1859
1866
1865
1870
1884
1881
1880
1903
1895
1906
1918
1926
1931
1941
1965
1969
1992
2010
2023
2044
2069
2093
2104
2118
2117
2114
2107
2088
2067
2043
2025
1997
1981
1958
1946
1942
1930
1934
1925
1919
1921
1920
1919
1926
1921
1917
1920
1914
1908
1906
1901
1900
1906
1906
1906
1914
1911
1896
1906
1899
1896
1904
1903
1904
1903
1913
1909
1908
1917
1923
1913
1922
1921
1914
1920
1919
1920
1919
1926
1921
1920
1927
1917
1920
1926
1928
1930
1931
1934
1925
1932
1937
1934
1943
1943
1939
1937
1940
1937
1942
1954
1943
1941
1948
1948
1935
1936
1943
1942
1968
1972
1988
1987
2004
2014
1992
1990
1964
1949
1948
1958
1967
1968
1986
1982
1976
1980
1966
1961
1945
1975
1968
1903
1858
1917
2281
3041
3785
4095
4095
3874
3332
2766
2275
2064
1948
1914
1889
1874
1837
1817
1836
1850
1852
1853
1846
1851
1833
1830
1845
1852
1861
1871
1858
1867
1861
1871
1888
1883
1898
1888
1898
1903
1913
1924
1924
1942
1947
1966
1982
1994
2014
2026
2042
2065
2087
2105
2121
2120
2119
2122
2100
2076
2055
2023
2005
1989
1966
1952
1956
1937
1941
1935
1923
1938
1921
1926
1921
1915
1926
1919
1930
1918
1914
1918
1911
1913
1915
1907
1912
1918
1916
1914
1913
1916
1916
1923
1913
1926
1921
1923
1920
1921
1929
1925
1931
1934
1937
1933
1947
1931
1939
1939
1940
1945
1943
1951
1941
1937
1941
1945
1947
1954
1949
1951
1953
1944
1961
1960
1957
1957
1962
1956
1965
1968
1961
1960
1966
1965
1948
1959
1961
1985
2008
2013
2014
2018
2018
2015
2014
1995
1989
1977
1992
2000
2013
2017
2013
2010
2007
2006
1994
1986
2013
1984
1931
1885
2001
2476
3252
3940
4095
4095
3756
3245
2678
2240
2078
1984
1970
1956
1924
1890
1871
1891
1913
1894
1903
1903
1901
1889
1893
1893
1903
1918
1925
1918
1921
1931
1939
1942
1950
1957
1954
1970
1969
1980
1995
1991
2008
2015
2029
2050
2063
2080
2099
2116
2133
2158
2167
2193
2199
2179
2181
2156
2137
2119
2086
2064
2050
2032
2029
2006
2001
2001
1993
1996
2000
1993
1994
2002
1999
2003
1999
1998
1984
1982
1979
1974
1991
1986
1982
1974
1975
1980
1988
1996
1986
1986
1995
1993
1991
1991
1993
1989
2000
1991
1991
1992
1999
2007
2006
2009
1991
2000
2003
2005
2015
2012
2009
2017
2013
2015
2009
2018
2027
2012
2028
2023
2026
2031
2026
2020
2029
2033
2028
2028
2026
2040
2047
2066
2070
2061
2085
2070
2067
2049
2042
2035
2028
2054
2050
2055
2068
2051
2045
2062
2057
2025
2032
2044
2002
1956
1990
2298
3022
3736
4095
4095
3806
3319
2904
2421
2168
2042
1968
1970
1986
1944
1910
1912
1947
1949
1930
1936
1939
1935
1937
1949
1942
1944
1950
1957
1967
1970
1977
1972
1986
1987
1994
1993
2009
2015
2023
2039
2046
2058
2066
2087
2085
2110
2127
2137
2169
2187
2214
2213
2214
2207
2192
2172
2150
2122
2098
2076
2045
2034
2024
2018
2006
1991
1981
1979
1985
1996
1988
1979
1980
1973
1982
1979
1981
1977
1980
1985
1976
1975
1972
1967
1975
1988
1981
1973
1973
1974
1979
1978
1991
1971
1978
1978
1961
1973
1979
1982
1989
1993
1989
1982
1984
1985
1979
1987
1991
1986
1979
2000
1983
1983
2007
1990
1995
1991
1987
1980
2000
2016
2028
2034
2040
2039
2037
2048
2026
2011
1996
1991
2002
2020
2031
2026
2038
2018
2019
2027
2008
1992
2002
2011
1956
1923
1960
2354
3124
3815
4095
4095
3764
3275
2811
2326
2111
1987
1933
1938
1943
1898
1869
1872
1905
1901
1892
1903
1892
1889
1888
1909
1917
1914
1913
1912
1918
1937
1940
1949
1951
1957
1971
1973
1991
1999
2006
2013
2025
2031
2059
2073
2088
2103
2117
2141
2165
2191
2215
2213
2205
2192
2169
2147
2123
2094
2072
2062
2035
2019
1995
1988
1989
1982
1984
1973
1974
1970
1973
1970
1973
1982
1979
1977
1971
1967
1968
1965
1974
1971
1965
1972
1963
1965
1969
1970
1966
1964
1977
1966
1966
1974
1966
1961
1963
1973
1971
1979
1981
1973
1970
1971
1971
1961
1975
1974
1983
1987
1983
1978
1976
1986
1983
1983
1978
1979
1973
1984
1978
1977
1989
1979
1973
1979
1986
2003
2021
2029
2037
2023
2035
2027
2017
2013
1994
1989
1994
1994
2011
2018
2013
2008
1995
1998
1989
1982
2003
1978
1918
1884
2024
2551
3362
4016
4095
4095
3669
3202
2651
2229
2059
1947
1922
1931
1901
1852
1847
1870
1885
1872
1868
1875
1875
1871
1872
1870
1868
1876
1879
1884
1888
1901
1904
1910
1913
1914
1928
1935
1947
1957
1958
1977
1988
2000
2015
2032
2051
2075
2104
2118
2142
2170
2171
2180
2185
2173
2162
2133
2105
2077
2051
2037
2009
1989
1987
1969
1963
1968
1954
1961
1960
1952
1952
1951
1946
1946
1954
1940
1933
1942
1940
1949
1955
1940
1939
1937
1947
1938
1940
1943
1928
1936
1936
1933
1940
1943
1945
1936
1936
1947
1940
1952
1950
1940
1947
1948
1958
1954
1962
1958
1945
1959
1952
1959
1962
1952
1955
1956
1958
1959
1952
1958
1960
1962
1961
1961
1965
1964
1952
1960
1962
1972
1991
1992
2009
2005
2018
2022
2004
2008
1985
1970
1973
1976
1985
2002
2009
1998
1984
1985
1979
1970
1954
1986
1971
1902
1864
1973
2453
3265
3965
4095
4095
3776
3266
2682
2233
2056
1935
1907
1903
1875
1838
1830
1835
1855
1847
1845
1849
1845
1839
1843
1849
1853
1852
1864
1863
1869
1874
1880
1880
1888
1898
1900
1914
1925
1919
1929
1940
1946
1964
1982
2006
2018
2040
2071
2090
2113
2140
2145
2144
2156
2132
2123
2102
2076
2043
2015
2004
1973
1966
1951
1940
1932
1924
1924
1912
1915
1911
1903
1903
1910
1905
1907
1896
1899
1902
1898
1896
1894
1893
1898
1895
1892
1903
1892
1900
1898
1891
1897
1886
1901
1895
1900
1906
1892
1905
1910
1904
1908
1903
1900
1903
1909
1913
1907
1914
1910
1911
1913
1913
1918
1910
1913
1920
1908
1912
1914
1908
1911
1909
1914
1903
1924
1911
1922
1922
1920
1926
1921
1925
1913
1919
1905
1913
1925
1940
1960
1965
1980
1975
1989
1981
1971
1952
1939
1936
1940
1958
1964
1966
1972
1965
1968
1958
1946
1937
1944
1966
1905
1846
1879
2144
2815
3633
4095
4095
4090
3473
2908
2340
2086
1943
1894
1872
1854
1821
1804
1802
1819
1823
1813
1826
1817
1807
1820
1814
1819
1822
1826
1836
1839
1843
1851
1849
1866
1873
1860
1880
1873
1883
1908
1912
1929
1922
1956
1968
1978
2012
2019
2037
2072
2087
2106
2118
2132
2127
2112
2105
2076
2048
2027
1999
1973
1955
1943
1932
1929
1928
1919
1911
1918
1908
1915
1914
1906
1904
1909
1904
1912
1907
1901
1906
1904
1895
1891
1896
1895
1899
1905
1894
1902
1900
1898
1904
1898
1906
1910
1912
1910
1914
1916
1910
1919
1912
1914
1918
1915
1916
1918
1912
1920
1916
1929
1918
1917
1925
1927
1928
1935
1928
1926
1932
1943
1935
1932
1938
1926
1945
1951
1940
1951
1940
1936
1941
1945
1943
1935
1933
1930
1941
1970
1990
1981
1991
1996
1994
1991
1978
1957
1937
1951
1953
1958
1979
1986
1981
1979
1977
1963
1963
1947
1977
1962
1888
1863
1944
2359
3131
3855
4095
4095
3852
3312
2724
2250
2064
1950
1923
1903
1888
1849
1835
1839
1861
1856
1848
1868
1859
1849
1856
1850
1849
1877
1870
1872
1889
1890
1899
1898
1902
1907
1916
1934
1934
1943
1948
1962
1975
1986
2011
2020
2038
2063
2087
2115
2129
2158
2174
2185
2177
2172
2151
2136
2108
2074
2059
2042
2030
2009
1990
1980
1959
1956
1969
1967
1972
1971
1964
1960
1954
1967
1953
1960
1960
1956
1950
1950
1941
1951
1957
1948
1950
1945
1949
1953
1964
1954
1952
1960
1967
1964
1961
1960
1953
1961
1968
1969
1971
1974
1966
1968
1960
1968
1980
1985
1978
1974
1975
1982
1984
1981
1980
1962
1965
1979
1971
1974
1990
1985
1973
1994
1981
1979
1983
1976
1980
1994
2020
2033
2032
2041
2043
2028
2024
2018
1993
2003
2001
1997
2004
2017
2018
2015
2019
2010
2010
2013
1987
2001
1997
1930
1898
2019
2498
3286
3916
4095
4095
3616
3186
2670
2256
2081
1970
1922
1928
1924
1873
1862
1895
1905
1893
1893
1898
1890
1891
1891
1881
1903
1898
1904
1914
1919
1915
1928
1934
1944
1962
1961
1973
1971
1985
2009
2010
2028
2040
2054
2069
2090
2112
2116
2140
2163
2173
2191
2202
2191
2182
2163
2135
2104
2082
2054
2023
2017
2000
1990
1976
1969
1961
1964
1959
1953
1946
1944
1952
1951
1953
1946
1946
1946
1946
1948
1946
1953
1951
1949
1945
1946
1950
1955
1947
1944
1940
1943
1956
1953
1958
1952
1950
1948
1936
1943
1956
1947
1945
1949
1945
1952
1957
1952
1948
1952
1955
1956
1953
1964
1961
1967
1959
1956
1962
1955
1958
1967
1982
2005
2007
2013
2011
2014
2005
1999
1989
1975
1972
1978
1984
1995
2006
1992
1988
1980
1986
1987
1969
1983
1995
1930
1889
1927
2288
3055
3768
4095
4095
3794
3298
2827
2321
2102
1979
1909
1911
1901
1849
1830
1852
1874
1872
1861
1860
1866
1870
1874
1868
1866
1876
1880
1894
1899
1901
1898
1913
1928
1930
1939
1944
1946
1961
1971
1981
1999
2014
2029
2044
2061
2077
2107
2130
2149
2164
2176
2189
2179
2172
2148
2113
2095
2066
2033
2013
1996
1982
1979
1970
1952
1950
1946
1941
1939
1949
1944
1941
1945
1931
1923
1939
1930
1930
1936
1937
1934
1931
1938
1926
1937
1940
1938
1936
1942
1937
1924
1935
1932
1936
1939
1948
1943
1936
1950
1939
1936
1947
1943
1944
1938
1943
1933
1943
1958
1948
1955
1946
1952
1951
1957
1949
1948
1955
1948
1967
1958
1959
1947
1952
1964
1956
1954
1946
1951
1969
1987
1992
2000
2010
2013
2010
2001
1982
1978
1963
1964
1974
1979
1997
1989
1982
1987
1978
1975
1958
1961
1987
1931
1865
1883
2167
2872
3684
4095
4095
4055
3485
2975
2397
2121
1977
1912
1904
1896
1856
1823
1825
1841
1855
1838
1850
1846
1831
1835
1835
1841
1853
1865
1869
1874
1865
1869
1874
1885
1898
1906
1914
1914
1925
1934
1946
1954
1968
1988
2007
2021
2050
2061
2086
2113
2138
2162
2169
2176
2158
2154
2133
2099
2077
2048
2030
2002
1999
1973
1960
1959
1953
1950
1945
1951
1940
1940
1937
1938
1938
1939
1941
1932
1943
1936
1938
1936
1924
1931
1936
1928
1926
1931
1934
1927
1942
1934
1924
1930
1927
1935
1934
1937
1934
1929
1938
1936
1927
1936
1938
1933
1943
1936
1943
1942
1948
1946
1942
1947
1940
1940
1944
1944
1941
1947
1939
1944
1953
1949
1952
1936
1947
1942
1953
1958
1945
1944
1945
1957
1953
1960
1965
1955
1958
1952
1945
1950
1947
1943
1948
1955
1974
1980
1992
1985
1998
2002
1999
1994
1979
1968
1950
1962
1975
1983
1987
1987
1973
1976
1977
1967
1949
1973
1967
1896
1854
1931
2314
3097
3854
4095
4095
3913
3349
2763
2267
2063
1942
1906
1886
1862
1830
1808
1822
1843
1827
1838
1832
1828
1822
1823
1835
1835
1838
1856
1844
1850
1864
1862
1884
1878
1884
1884
1899
1901
1914
1918
1928
1929
1961
1981
1984
2018
2024
2049
2072
2100
2120
2132
2148
2142
2147
2138
2117
2094
2077
2050
2026
2003
1989
1967
1964
1955
1938
1940
1938
1935
1936
1941
1939
1933
1937
1935
1937
1939
1928
1927
1929
1921
1928
1925
1927
1925
1929
1927
1929
1924
1928
1934
1928
1925
1930
1929
1935
1931
1930
1933
1938
1941
1938
1939
1931
1933
1937
1930
1936
1946
1937
1947
1950
1943
1952
1946
1948
1943
1945
1943
1947
1951
1950
1954
1947
1956
1956
1950
1955
1946
1948
1945
1950
1955
1949
1941
1947
1945
1969
1989
1991
1994
1999
2008
1992
1989
1981
1961
1953
1970
1960
1972
1992
1985
1984
1982
1980
1968
1968
1977
1996
1943
1885
1901
2161
2819
3638
4095
4095
4095
3545
2988
2416
2142
2012
1954
1921
1904
1874
1863
1856
1877
1883
1865
1884
1870
1862
1867
1875
1869
1878
1888
1894
1895
1906
1900
1905
1927
1925
1925
1937
1936
1952
1955
1962
1968
1988
2014
2023
2052
2052
2069
2088
2117
2142
2166
2181
2183
2182
2167
2162
2130
2102
2085
2055
2035
2022
2009
1999
1985
1988
1982
1977
1986
1972
1972
1973
1960
1964
1965
1968
1956
1961
1958
1959
1953
1965
1957
1951
1959
1949
1947
1959
1958
1946
1952
1958
1952
1955
1960
1953
1958
1954
1955
1952
1952
1955
1950
1957
1956
1954
1963
1966
1957
1960
1960
1951
1961
1959
1957
1963
1960
1958
1951
1958
1959
1959
1966
1965
1949
1958
1963
1955
1957
1963
1958
1953
1963
1960
1956
1951
1947
1937
1951
1977
1988
1992
1997
2006
2007
2009
1997
1969
1967
1949
1958
1969
1973
1985
1980
1974
1972
1967
1961
1952
1968
1973
1912
1862
1931
2295
3047
3788
4095
4095
3875
3334
2763
2264
2072
1948
1903
1882
1874
1830
1819
1828
1844
1841
1843
1850
1829
1833
1829
1830
1838
1840
1848
1851
1857
1857
1863
1856
1865
1878
1882
1902
1902
1913
1920
1928
1941
1953
1965
1981
2003
2009
2045
2067
2085
2108
2127
2138
2141
2136
2122
2109
2084
2060
2027
2001
1985
1976
1956
1947
1942
1935
1936
1934
1928
1925
1933
1931
1929
1927
1920
1919
1925
1922
1924
1923
1914
1916
1915
1911
1915
1922
1918
1920
1922
1918
1924
1927
1931
1924
1932
1919
1930
1931
1929
1933
1928
1933
1933
1931
1930
1934
1929
1943
1938
1952
1945
1944
1948
1949
1950
1952
1953
1943
1944
1944
1946
1953
1964
1944
1953
1955
1951
1962
1957
1957
1962
1976
1994
1997
2000
1997
2011
2010
2000
1992
1976
1959
1983
1975
1987
2006
1998
1990
1981
1982
1974
1976
1954
1973
1957
1898
1903
2101
2714
3473
4050
4095
3988
3423
2989
2474
2140
2009
1922
1903
1916
1884
1848
1848
1881
1883
1870
1863
1874
1866
1865
1871
1865
1872
1881
1879
1902
1904
1908
1915
1922
1934
1931
1945
1945
1966
1986
2010
2023
2020
2032
2051
2078
2091
2106
2117
2143
2158
2186
2181
2197
2196
2177
2153
2111
2093
2068
2042
2011
1987
1973
1964
1962
1958
1953
1947
1952
1944
1940
1948
1947
1953
1945
1937
1928
1935
1946
1933
1935
1935
1937
1939
1938
1928
1927
1931
1947
1937
1940
1947
1933
1943
1944
1942
1943
1940
1937
1943
1936
1950
1945
1936
1956
1940
1954
1958
1958
1967
1959
1961
1949
1948
1957
1956
1984
1985
1995
2013
2010
2006
2007
1994
1986
1971
1968
1970
1984
2006
2005
2003
1996
1982
1988
1991
1966
1982
1996
1945
1904
2002
2490
3275
3923
4095
4095
3497
3062
2610
2232
2068
1952
1887
1913
1907
1863
1844
1877
1895
1889
1884
1869
1881
1875
1869
1865
1885
1889
1876
1915
1898
1903
1922
1922
1927
1936
1954
1941
1962
1982
1995
2014
2018
2029
2028
2067
2083
2113
2133
2144
2168
2177
2180
2174
2168
2146
2123
2088
2059
2024
1984
1970
1948
1937
1930
1915
1904
1908
1907
1912
1901
1902
1894
1892
1900
1893
1895
1901
1901
1904
1907
1908
1900
1902
1906
1902
1905
1907
1894
1902
1896
1900
1901
1899
1903
1893
1900
1903
1897
1899
1896
1897
1894
1901
1902
1893
1900
1901
1885
1884
1891
1903
1911
1938
1935
1943
1946
1948
1946
1934
1936
1917
1904
1903
1914
1914
1931
1930
1922
1928
1932
1929
1911
1896
1912
1906
1849
1818
1902
2387
3213
3911
4095
4095
3654
3158
2626
2178
1992
1872
1823
1833
1824
1779
1767
1784
1806
1797
1799
1810
1799
1787
1793
1787
1799
1811
1811
1817
1817
1830
1832
1842
1849
1855
1865
1875
1891
1903
1902
1921
1926
1949
1973
2004
2017
2038
2067
2079
2110
2136
2145
2139
2137
2119
2081
2054
2011
1984
1970
1953
1935
1909
1905
1901
1891
1896
1895
1888
1885
1887
1874
1890
1882
1887
1892
1878
1883
1881
1889
1893
1900
1888
1882
1889
1881
1885
1890
1893
1890
1891
1887
1892
1887
1892
1893
1895
1893
1905
1900
1897
1905
1910
1903
1906
1913
1905
1910
1916
1908
1904
1916
1913
1903
1919
1915
1920
1916
1924
1919
1919
1919
1922
1918
1924
1935
1922
1915
1921
1918
1933
1963
1967
1969
1972
1980
1981
1987
1975
1952
1939
1937
1951
1963
1976
1975
1960
1956
1959
1944
1959
1938
1957
1942
1871
1835
1946
2448
3267
3975
4095
4095
3759
3242
2665
2203
2033
1912
1882
1880
1860
1816
1797
1817
1839
1832
1831
1822
1824
1828
1828
1830
1836
1841
1847
1865
1859
1854
1875
1878
1894
1893
1901
1902
1903
1920
1925
1938
1959
1978
1993
2017
2042
2060
2086
2111
2139
2161
2180
2190
2176
2177
2164
2132
2104
2077
2043
2012
2008
1981
1967
1976
1964
1957
1961
1955
1949
1948
1951
1943
1937
1939
1939
1934
1937
1936
1937
1949
1944
1934
1935
1927
1934
1935
1940
1932
1931
1945
1937
1936
1939
1940
1938
1938
1943
1939
1948
1952
1951
1952
1954
1962
1957
1948
1957
1954
1950
1962
1962
1953
1963
1963
1961
1968
1970
1961
1965
1953
1961
1975
1971
1978
1972
1971
1979
1989
1982
1979
1988
1984
1982
1982
1982
1976
1978
1979
1983
1987
2016
2023
2022
2032
2030
2039
2029
2025
1999
1990
1992
1993
2009
2017
2020
2007
2008
1998
1996
1993
1993
2010
1965
1906
1898
2135
2756
3595
4095
4095
4095
3593
3068
2471
2161
2012
1938
1920
1908
1884
1843
1844
1862
1869
1864
1858
1861
1851
1854
1859
1862
1870
1871
1874
1878
1884
1890
1896
1892
1907
1907
1915
1922
1928
1931
1941
1953
1964
1983
1995
2019
2043
2056
2082
2111
2127
2154
2170
2166
2158
2154
2134
2105
2069
2044
2015
2003
1994
1965
1957
1939
1938
1931
1939
1926
1923
1934
1919
1922
1916
1920
1910
1918
1914
1903
1912
1906
1902
1899
1912
1902
1908
1906
1892
1896
1893
1901
1888
1889
1901
1890
1902
1894
1894
1903
1901
1909
1902
1902
1904
1906
1905
1906
1907
1915
1913
1917
1924
1913
1917
1916
1912
1914
1925
1920
1921
1926
1921
1920
1924
1925
1930
1925
1933
1926
1931
1929
1925
1928
1932
1938
1935
1933
1924
1932
1927
1929
1922
1931
1933
1932
1924
1919
1933
1951
1974
1973
1981
1982
1982
1982
1980
1963
1957
1942
1946
1957
1969
1965
1962
1963
1962
1950
1949
1938
1952
1963
1892
1844
1886
2196
2915
3712
4095
4095
4035
3419
2826
2303
2067
1934
1900
1865
1847
1814
1802
1796
1811
1817
1815
1814
1810
1815
1799
1814
1817
1809
1826
1828
1818
1839
1840
1840
1855
1856
1859
1863
1880
1877
1893
1900
1921
1920
1950
1971
1975
2015
2028
2051
2077
2108
2119
2123
2144
2133
2120
2110
2080
2044
2035
2011
1986
1967
1952
1936
1929
1935
1918
1916
1921
1922
1924
1925
1925
1908
1919
1919
1915
1923
1923
1911
1909
1913
1903
1905
1910
1904
1907
1913
1906
1905
1916
1924
1916
1927
1929
1918
1936
1938
1937
1928
1943
1935
1937
1940
1944
1934
1947
1956
1937
1943
1944
1951
1955
1960
1954
1944
1958
1967
1967
1975
1971
1959
1969
1978
1968
1976
1968
1974
1978
1984
1986
1965
1982
1984
1991
1976
1982
1968
1974
2006
2022
2025
2029
2035
2026
2039
2035
2003
1999
1999
1994
2002
2015
2014
2012
2015
2009
1997
2003
1991
1970
2003
1971
1900
1881
2106
2740
3542
4095
4095
4074
3473
3044
2486
2169
2042
1954
1931
1931
1902
1859
1876
1896
1889
1883
1887
1887
1887
1889
1872
1880
1891
1889
1905
1912
1908
1910
1922
1926
1937
1943
1953
1970
1978
1994
1982
2008
2022
2037
2063
2080
2086
2108
2147
2160
2179
2192
2197
2205
2202
2201
2170
2141
2114
2087
2059
2037
2019
1992
1988
1978
1968
1969
1963
1959
1954
1947
1951
1955
1949
1950
1942
1943
1951
1946
1939
1935
1932
1937
1943
1942
1934
1946
1945
1945
1939
1943
1950
1952
1950
1941
1941
1951
1962
1953
1948
1952
1938
1960
1955
1946
1954
1947
1961
1955
1958
1961
1954
1968
1967
1967
1958
1964
1967
1961
1962
1961
1956
1963
1974
1974
1983
1995
1994
2006
2015
2021
2017
2012
1999
1981
1966
1963
1973
1989
2005
1999
1979
1972
1975
1979
1962
1960
1974
1926
1877
1874
2132
2845
3619
4095
4095
3930
3361
2921
2398
2107
1970
1889
1873
1888
1858
1816
1830
1850
1843
1833
1829
1845
1845
1847
1839
1848
1856
1848
1853
1859
1864
1866
1886
1883
1902
1907
1923
1927
1927
1944
1955
1972
1981
2000
2017
2043
2063
2088
2103
2129
2146
2160
2163
2165
2158
2135
2108
2069
2041
2019
1993
1974
1948
1934
1926
1931
1926
1916
1920
1917
1911
1910
1905
1899
1904
1901
1908
1903
1893
1909
1908
1908
1910
1908
1909
1916
1915
1903
1902
1907
1911
1917
1921
1912
1914
1914
1908
1918
1912
1919
1921
1921
1924
1912
1923
1926
1918
1927
1924
1922
1928
1925
1919
1922
1934
1932
1935
1937
1924
1940
1942
1947
1941
1938
1934
1924
1940
1935
1944
1929
1945
1951
1963
1985
1979
1984
1998
2001
1999
1979
1961
1957
1949
1963
1961
1974
1985
1979
1978
1976
1958
1959
1941
1959
1958
1887
1842
1907
2341
3149
3889
4095
4095
3820
3293
2760
2268
2059
1943
1891
1888
1871
1821
1816
1818
1846
1839
1831
1836
1837
1832
1833
1839
1832
1843
1840
1856
1866
1865
1868
1877
1884
1885
1897
1901
1912
1923
1935
1935
1947
1962
1975
2008
2027
2061
2068
2096
2124
2155
2171
2175
2175
2156
2152
2115
2099
2069
2045
2012
1987
1964
1948
1949
1939
1935
1927
1937
1929
1922
1934
1922
1922
1929
1922
1922
1918
1923
1914
1917
1923
1920
1929
1928
1910
1912
1913
1918
1913
1918
1919
1909
1927
1919
1921
1915
1923
1931
1925
1931
1920
1921
1929
1931
1921
1933
1924
1937
1938
1929
1933
1935
1936
1928
1942
1936
1938
1933
1941
1935
1937
1951
1944
1940
1940
1950
1949
1952
1952
1949
1941
1957
1953
1948
1953
1945
1939
1939
1946
1954
1968
1987
1993
2000
2004
2014
2005
2003
1985
1975
1964
1950
1964
1982
1990
1999
1980
1983
1971
1978
1970
1966
1980
1922
1858
1888
2192
2904
3712
4095
4095
4075
3472
2952
2375
2108
1968
1902
1884
1869
1844
1811
1826
1843
1837
1832
1835
1838
1833
1832
1827
1838
1839
1851
1848
1850
1865
1863
1875
1881
1879
1887
1896
1907
1907
1912
1925
1934
1952
1968
1985
2001
2028
2057
2080
2108
2129
2153
2161
2169
2157
2155
2127
2110
2088
2056
2027
2018
1993
1970
1968
1952
1946
1939
1942
1928
1925
1942
1934
1933
1934
1932
1926
1930
1928
1922
1921
1922
1921
1917
1920
1922
1916
1920
1918
1915
1916
1922
1921
1925
1920
1933
1928
1932
1935
1924
1933
1932
1929
1937
1930
1940
1945
1942
1939
1941
1948
1949
1956
1955
1938
1950
1953
1945
1949
1943
1947
1952
1949
1950
1945
1949
1954
1958
1957
1966
1963
1963
1961
1962
1958
1960
1960
1960
1964
1966
1961
1973
1971
1962
1970
1959
1956
1953
1958
1956
1955
1993
1993
2001
2010
2014
2013
2016
2000
1978
1971
1969
1969
1985
1997
1997
1990
1988
1976
1970
1967
1963
1984
1948
1889
1869
2048
2603
3442
4095
4095
4095
3669
3123
2529
2160
2025
1934
1902
1884
1859
1834
1830
1838
1854
1846
1845
1851
1833
1843
1833
1842
1844
1849
1859
1848
1856
1855
1861
1878
1880
1878
1887
1892
1888
1896
1903
1909
1918
1939
1954
1971
1995
2018
2024
2057
2074
2096
2116
2124
2132
2119
2116
2094
2071
2046
2012
1994
1970
1958
1945
1934
1926
1920
1922
1919
1908
1912
1908
1907
1905
1906
1903
1902
1902
1907
1899
1904
1904
1899
1903
1898
1889
1898
1902
1899
1893
1892
1886
1896
1908
1897
1899
1909
1899
1905
1907
1907
1904
1915
1907
1913
1913
1914
1910
1915
1915
1920
1927
1921
1932
1924
1925
1923
1929
1929
1933
1932
1928
1931
1926
1936
1935
1940
1941
1942
1937
1937
1949
1938
1942
1944
1933
1945
1948
1940
1944
1947
1940
1939
1938
1946
1949
1974
1979
1981
1988
1991
1993
1994
1981
1972
1958
1956
1966
1975
1985
1989
1967
1975
1977
1970
1963
1952
1988
1954
1897
1867
2005
2501
3314
3993
4095
4095
3727
3184
2590
2193
2041
1941
1907
1893
1870
1840
1833
1836
1850
1842
1853
1855
1845
1839
1839
1842
1845
1863
1855
1866
1862
1874
1879
1888
1904
1894
1902
1901
1916
1924
1938
1943
1944
1966
1979
2002
2020
2040
2058
2083
2104
2125
2151
2159
2164
2164
2146
2139
2110
2085
2060
2039
2022
1991
1989
1980
1972
1973
1959
1952
1954
1952
1965
1963
1953
1958
1953
1952
1958
1954
1951
1945
1947
1944
1939
1943
1944
1941
1947
1955
1944
1949
1953
1951
1962
1969
1963
1962
1961
1961
1961
1971
1974
1967
1970
1982
1971
1972
1970
1962
1966
1982
1989
1982
1990
1985
1981
1988
1987
1987
1991
1982
1993
1990
1988
1993
1988
1991
2000
1997
1988
2000
1989
2005
2004
1992
2003
2012
2034
2042
2046
2047
2044
2047
2037
2021
2010
2010
2016
2025
2030
2031
2030
2024
2026
2017
2021
1992
2006
2016
1952
1898
1950
2330
3099
3820
4095
4095
3801
3319
2837
2335
2114
1992
1934
1943
1939
1896
1857
1875
1899
1894
1898
1893
1901
1881
1895
1893
1898
1903
1889
1904
1913
1920
1927
1935
1935
1945
1953
1951
1958
1971
1983
1990
2007
2010
2027
2042
2057
2073
2099
2128
2147
2171
2190
2196
2198
2202
2189
2170
2146
2118
2080
2061
2046
2022
2007
1998
1988
1976
1984
1972
1974
1985
1973
1969
1982
1969
1969
1972
1956
1958
1966
1971
1959
1965
1964
1960
1976
1978
1959
1952
1965
1960
1968
1970
1956
1958
1970
1967
1963
1968
1975
1963
1970
1972
1962
1967
1971
1968
1968
1970
1967
1968
1978
1982
1981
1981
1978
1964
1980
1989
1974
1980
1981
1969
1987
1993
1989
1976
1983
1989
1976
1988
1988
2002
2026
2029
2029
2025
2018
2035
2024
2002
1994
1983
1999
2014
2016
2015
2008
1996
2008
2008
1987
1977
2007
1964
1906
1883
2066
2678
3485
4075
4095
4095
3504
3068
2531
2184
2032
1931
1903
1913
1896
1851
1848
1877
1880
1875
1877
1869
1867
1862
1875
1878
1888
1888
1879
1890
1894
1901
1912
1913
1918
1928
1937
1952
1966
1964
1982
1991
2007
2012
2036
2045
2069
2091
2105
2118
2139
2176
2185
2198
2196
2185
2160
2150
2113
2074
2060
2034
2020
2002
2001
1983
1983
1976
1962
1955
1956
1952
1960
1960
1961
1964
1957
1961
1952
1951
1954
1956
1960
1952
1959
1955
1961
1958
1958
1948
1958
1954
1961
1961
1950
1953
1954
1969
1959
1960
1959
1957
1963
1964
1954
1957
1963
1965
1973
1970
1970
1965
1974
1974
1977
1976
1968
1961
1975
1973
1978
1980
1974
1971
1970
1982
1975
1972
1984
1982
1978
1972
1967
1964
1988
2011
2028
2025
2031
2030
2019
2020
2007
1994
1987
1995
1998
2009
2010
2015
2005
2002
2005
1993
1984
1983
2001
1934
1884
1893
2209
2926
3716
4095
4095
4023
3453
2963
2406
2135
1991
1920
1914
1918
1875
1838
1848
1868
1881
1865
1878
1863
1869
1864
1857
1873
1872
1875
1895
1894
1899
1906
1904
1911
1919
1928
1927
1929
1936
1937
1953
1969
1972
1994
2016
2025
2047
2066
2093
2120
2150
2169
2173
2182
2186
2164
2154
2127
2097
2079
2046
2023
2010
1991
1981
1976
1964
1967
1958
1955
1952
1945
1958
1950
1943
1935
1935
1933
1937
1943
1935
1938
1946
1941
1944
1944
1940
1934
1946
1940
1936
1931
1931
1939
1940
1946
1941
1942
1946
1944
1940
1936
1946
1940
1945
1943
1941
1945
1942
1950
1955
1948
1944
1946
1939
1947
1956
1955
1956
1953
1947
1948
1941
1945
1951
1952
1961
1950
1960
1954
1964
1970
1962
1952
1955
1958
1960
1954
1952
1952
1969
2001
2004
2007
2004
2007
2002
2009
1987
1970
1960
1955
1971
1989
2003
1982
1988
1984
1984
1983
1964
1963
1988
1947
1878
1870
2081
2697
3531
4095
4095
4095
3603
3089
2490
2156
2004
1914
1901
1900
1855
1826
1840
1845
1851
1855
1848
1854
1852
1845
1838
1838
1853
1853
1862
1871
1875
1864
1884
1882
1883
1907
1898
1908
1906
1914
1924
1935
1953
1963
1981
1994
2007
2033
2056
2077
2103
2126
2145
2152
2153
2144
2133
2117
2093
2065
2038
2012
1987
1977
1965
1956
1952
1942
1941
1935
1933
1939
1927
1929
1929
1923
1921
1921
1932
1921
1922
1929
1921
1921
1922
1918
1909
1918
1921
1911
1915
1917
1914
1922
1922
1919
1918
1921
1920
1921
1925
1924
1915
1929
1930
1923
1933
1927
1922
1932
1940
1935
1933
1939
1932
1926
1945
1932
1929
1950
1941
1949
1942
1945
1931
1942
1950
1937
1939
1949
1942
1946
1964
1942
1949
1951
1952
1947
1952
1959
1954
1960
1958
1956
1955
1951
1953
1949
1944
1946
1938
1944
1959
1982
1992
1998
2006
2002
2012
2002
1981
1980
1955
1963
1973
1983
1991
1991
1980
1980
1971
1972
1961
1976
1986
1920
1864
1892
2179
2873
3678
4095
4095
4079
3483
2904
2353
2108
1972
1934
1895
1887
1850
1826
1831
1837
1843
1842
1842
1839
1834
1831
1835
1837
1848
1851
1849
1859
1853
1859
1863
1869
1880
1887
1888
1901
1895
1916
1915
1916
1944
1948
1967
1986
1997
2021
2048
2061
2079
2106
2120
2143
2144
2133
2118
2107
2088
2056
2036
2014
1988
1982
1970
1951
1943
1946
1935
1933
1939
1924
1926
1927
1929
1932
1929
1929
1924
1929
1921
1925
1922
1919
1919
1925
1924
1924
1927
1925
1918
1922
1919
1913
1919
1920
1917
1917
1924
1923
1918
1933
1923
1926
1935
1935
1933
1931
1934
1930
1932
1942
1942
1939
1948
1946
1940
1949
1944
1947
1947
1950
1947
1958
1949
1957
1956
1958
1956
1959
1964
1949
1954
1959
1961
1970
1973
1968
1960
1971
1980
1966
1978
1971
1963
1980
1970
1969
1969
1962
1973
1995
1995
2018
2030
2031
2037
2030
2019
2007
2000
1995
2002
2013
2015
2037
2018
2005
2011
2013
2000
1994
2012
1987
1935
1900
2005
2454
3258
3952
4095
4095
3796
3287
2713
2265
2090
1991
1955
1941
1920
1869
1862
1880
1896
1898
1889
1893
1892
1883
1890
1887
1887
1896
1897
1908
1912
1910
1924
1928
1926
1947
1943
1951
1947
1965
1972
1983
2002
2001
2017
2041
2061
2075
2099
2115
2140
2149
2169
2189
2189
2197
2178
2162
2150
2132
2102
2084
2046
2032
2017
2007
2000
1988
1975
1973
1968
1984
1981
1967
1983
1973
1971
1973
1975
1971
1972
1970
1962
1970
1979
1980
1968
1964
1952
1968
1971
1969
1965
1959
1965
1960
1956
1964
1958
1975
1973
1964
1968
1975
1970
1970
1973
1964
1968
1977
1974
1983
1985
1985
1986
1985
1984
1990
1982
1990
1988
1986
1999
1984
1992
1996
1989
2002
1990
1996
1980
1999
2005
2011
2042
2046
2052
2052
2040
2015
2021
2017
2008
2011
2004
2006
2018
2034
2025
2018
2014
2018
2011
2009
1989
1998
1963
1897
1916
2200
2912
3650
4095
4095
3850
3329
2916
2425
2139
2015
1936
1920
1945
1904
1853
1869
1898
1889
1877
1880
1884
1892
1894
1890
1896
1903
1910
1912
1908
1922
1920
1943
1947
1947
1952
1964
1977
1967
1984
1989
1998
2023
2031
2048
2055
2090
2096
2123
2145
2155
2177
2194
2199
2196
2184
2152
2129
2099
2074
2039
2018
1995
1980
1969
1961
1955
1952
1955
1949
1952
1948
1953
1940
1939
1942
1940
1948
1944
1944
1945
1941
1936
1938
1934
1937
1944
1940
1945
1931
1938
1940
1940
1935
1931
1929
1929
1940
1940
1935
1938
1941
1945
1942
1944
1946
1943
1946
1944
1937
1943
1950
1941
1947
1947
1945
1961
1955
1955
1953
1954
1946
1950
1954
1957
1980
1997
2002
2011
2012
1998
1991
1979
1963
1950
1950
1961
1974
1990
1984
1977
1977
1980
1989
1969
1957
1973
1936
1891
1853
2022
2632
3436
4043
4095
4095
3505
3069
2554
2171
2012
1912
1884
1897
1879
1833
1823
1851
1866
1850
1848
1860
1856
1860
1853
1857
1859
1862
1871
1882
1883
1885
1897
1896
1910
1914
1923
1934
1934
1950
1954
1960
1973
1995
2013
2020
2054
2059
2087
2119
2142
2172
2173
2181
2176
2160
2153
2119
2084
2057
2022
2004
1995
1982
1967
1962
1955
1947
1939
1950
1943
1927
1942
1930
1934
1945
1936
1933
1933
1935
1933
1931
1936
1931
1941
1951
1945
1944
1940
1933
1945
1937
1936
1939
1935
1945
1939
1946
1937
1944
1942
1947
1947
1944
1952
1950
1947
1950
1957
1947
1958
1958
1957
1957
1964
1958
1955
1966
1960
1963
1959
1967
1964
1959
1964
1958
1972
1973
1957
1964
1961
1959
1955
1965
1968
1984
2010
2005
2011
2021
2019
2015
2012
2000
1978
1979
1985
1984
2001
2007
2002
1995
2003
1997
1983
1976
1991
1973
1905
1866
1958
2414
3228
3942
4095
4095
3835
3311
2756
2270
2076
1961
1915
1903
1882
1847
1832
1852
1868
1859
1858
1863
1862
1848
1854
1851
1846
1863
1866
1875
1886
1884
1882
1891
1895
1901
1906
1904
1921
1923
1928
1938
1946
1967
1984
2002
2009
2029
2057
2085
2109
2133
2147
2164
2169
2162
2157
2130
2103
2082
2049
2029
2011
1987
1984
1964
1964
1951
1944
1951
1937
1942
1933
1937
1927
1936
1936
1919
1929
1925
1929
1939
1935
1932
1919
1924
1929
1923
1923
1924
1913
1925
1928
1913
1931
1919
1916
1927
1923
1927
1929
1924
1923
1929
1924
1927
1938
1932
1929
1935
1934
1936
1939
1946
1936
1948
1935
1951
1952
1946
1944
1937
1946
1941
1955
1937
1944
1942
1949
1952
1952
1960
1945
1950
1952
1956
1948
1955
1954
1956
1951
1951
1958
1955
1985
1993
1993
2003
2006
2009
1995
1995
1968
1960
1959
1965
1983
1994
1998
1985
1989
1980
1975
1971
1952
1988
1954
1890
1859
2031
2544
3370
4052
4095
4095
3724
3184
2581
2188
2030
1931
1910
1891
1872
1830
1832
1843
1848
1849
1847
1840
1843
1842
1842
1841
1851
1859
1854
1868
1871
1871
1884
1887
1888
1889
1901
1897
1912
1912
1913
1923
1933
1948
1972
1989
2000
2022
2042
2064
2080
2111
2127
2134
2159
2141
2121
2114
2089
2058
2044
2017
1987
1977
1960
1951
1946
1940
1930
1933
1931
1931
1929
1920
1921
1918
1926
1925
1923
1928
1921
1916
1917
1921
1920
1914
1918
1910
1916
1913
1916
1906
1914
1914
1908
1911
1920
1919
1918
1926
1913
1921
1925
1924
1928
1928
1929
1918
1922
1925
1927
1923
1925
1930
1931
1925
1928
1932
1939
1935
1934
1934
1931
1928
1934
1932
1939
1940
1933
1933
1939
1949
1934
1946
1939
1940
1944
1944
1947
1940
1952
1939
1949
1946
1946
1941
1933
1939
1954
1971
1978
1982
1994
1999
2000
2000
1982
1968
1962
1958
1961
1969
1974
1980
1972
1968
1971
1965
1957
1963
1984
1926
1881
1886
2123
2748
3571
4095
4095
4095
3527
2989
2417
2142
1984
1924
1910
1879
1859
1835
1823
1835
1859
1845
1853
1850
1839
1837
1846
1853
1847
1850
1861
1853
1870
1877
1876
1883
1896
1898
1899
1918
1913
1916
1930
1947
1950
1971
1981
1979
2007
2030
2046
2073
2103
2113
2141
2154
2151
2142
2145
2123
2096
2080
2049
2030
2023
1997
1977
1974
1954
1957
1949
1956
1951
1947
1954
1937
1953
1944
1946
1945
1945
1944
1947
1943
1939
1941
1940
1932
1933
1936
1933
1947
1942
1939
1940
1936
1944
1947
1943
1938
1934
1941
1941
1951
1948
1947
1952
1940
1958
1955
1960
1965
1952
1948
1952
1951
1952
1960
1963
1958
1968
1967
1960
1970
1967
1958
1968
1975
1973
1986
1980
1973
1979
1980
1975
1974
1978
1982
1984
1977
1992
1985
2028
2037
2027
2039
2037
2039
2037
2040
2011
2001
2000
2000
2016
2031
2032
2027
2028
2037
2018
2020
1998
2009
2023
1965
1916
2031
2474
3256
3956
4095
4095
3796
3297
2728
2282
2109
2008
1964
1968
1948
1893
1890
1906
1921
1915
1911
1910
1910
1908
1915
1907
1911
1917
1919
1929
1933
1935
1945
1951
1957
1959
1966
1971
1981
1991
1985
2006
2017
2034
2051
2052
2072
2092
2119
2137
2156
2179
2189
2204
2207
2199
2204
2177
2146
2124
2091
2072
2052
2034
2016
2004
2004
1995
1979
1984
1978
1980
1983
1978
1980
1973
1973
1979
1968
1974
1967
1966
1971
1970
1967
1958
1970
1963
1965
1961
1962
1961
1962
1971
1964
1965
1970
1955
1962
1975
1967
1970
1964
1962
1964
1964
1965
1966
1966
1974
1977
1969
1970
1964
1962
1964
1978
1966
1981
1978
1956
1968
1966
1981
1979
1977
1979
1973
1979
1979
1967
1976
2005
2008
2024
2030
2030
2033
2024
2009
1989
1994
1985
1981
2005
2013
2015
2016
1996
1991
2006
1994
1973
1985
1982
1932
1892
1999
2514
3301
3923
4095
4088
3499
3086
2611
2219
2050
1942
1893
1914
1904
1850
1858
1879
1886
1886
1871
1883
1883
1884
1880
1883
1894
1889
1905
1905
1904
1917
1916
1925
1928
1932
1947
1955
1963
1978
1985
1993
2013
2016
2032
2053
2070
2089
2103
2114
2133
2161
2176
2186
2179
2173
2153
2128
2108
2066
2037
2020
1995
1987
1975
1969
1954
1941
1936
1929
1937
1924
1933
1931
1935
1938
1928
1930
1921
1918
1922
1919
1918
1936
1921
1926
1926
1918
1913
1913
1923
1918
1917
1921
1917
1907
1913
1915
1909
1915
1919
1921
1916
1927
1916
1916
1925
1923
1925
1921
1920
1918
1919
1926
1933
1922
1918
1917
1914
1927
1929
1954
1967
1973
1981
1979
1965
1964
1953
1943
1939
1930
1940
1947
1959
1965
1956
1938
1960
1961
1939
1926
1938
1909
1862
1858
2063
2711
3487
4060
4095
3943
3365
2943
2433
2112
1964
1866
1857
1872
1839
1806
1799
1819
1840
1825
1817
1836
1834
1820
1820
1831
1834
1844
1853
1857
1854
1861
1873
1871
1893
1909
1903
1914
1922
1923
1941
1959
1972
1987
2005
2015
2029
2054
2081
2093
2131
2152
2149
2159
2141
2120
2094
2090
2046
2014
1991
1959
1943
1944
1936
1925
1922
1913
1912
1903
1905
1903
1897
1906
1904
1903
1906
1909
1907
1904
1907
1893
1911
1912
1897
1906
1900
1904
1898
1916
1902
1895
1909
1897
1902
1907
1903
1906
1910
1903
1912
1904
1905
1916
1907
1904
1909
1921
1922
1929
1916
1915
1915
1915
1925
1918
1924
1929
1926
1930
1933
1930
1922
1920
1917
1939
1951
1976
1976
1973
1985
1989
1988
1982
1956
1939
1932
1939
1954
1952
1965
1961
1951
1955
1953
1943
1929
1958
1934
1873
1824
1955
2477
3302
3977
4095
4095
3648
3156
2614
2193
2017
1910
1870
1872
1855
1810
1804
1817
1833
1823
1826
1822
1824
1817
1815
1824
1832
1832
1828
1835
1843
1848
1864
1865
1872
1868
1881
1892
1898
1913
1910
1928
1935
1950
1975
1989
2018
2039
2065
2086
2112
2131
2142
2163
2155
2140
2126
2108
2078
2048
2030
1986
1979
1960
1952
1945
1934
1931
1923
1920
1927
1921
1917
1928
1915
1920
1919
1911
1907
1913
1914
1908
1918
1922
1913
1909
1925
1919
1924
1921
1916
1914
1917
1925
1913
1911
1923
1920
1926
1936
1926
1925
1928
1924
1924
1926
1925
1923
1926
1931
1931
1943
1940
1928
1935
1941
1938
1942
1937
1928
1936
1938
1943
1944
1950
1936
1937
1941
1950
1943
1940
1942
1936
1946
1945
1934
1943
1953
1972
1983
1987
1997
2000
2013
2002
1986
1964
1953
1953
1960
1978
1981
1979
1978
1978
1975
1970
1960
1942
1974
1935
1867
1845
1994
2536
3386
4062
4095
4095
3706
3182
2585
2181
2017
1912
1888
1886
1860
1823
1814
1840
1840
1845
1840
1834
1836
1829
1832
1834
1842
1848
1850
1853
1863
1861
1862
1870
1885
1887
1893
1888
1887
1906
1899
1928
1942
1949
1968
1989
1998
2030
2051
2077
2097
2120
2145
2148
2151
2150
2131
2115
2096
2061
2034
2017
2001
1979
1969
1952
1949
1951
1938
1932
1924
1929
1924
1929
1925
1921
1917
1920
1922
1913
1923
1918
1911
1927
1917
1912
1917
1916
1915
1908
1911
1908
1915
1920
1923
1916
1929
1921
1916
1927
1919
1930
1923
1931
1921
1930
1941
1930
1939
1940
1933
1937
1940
1947
1937
1939
1940
1940
1939
1940
1943
1934
1937
1939
1950
1949
1948
1949
1942
1941
1954
1949
1951
1954
1944
1952
1951
1962
1955
1954
1959
1946
1939
1950
1950
1957
1986
1991
1985
2002
2005
1998
2002
1994
1967
1959
1962
1964
1981
1989
1988
1977
1982
1987
1970
1977
1956
1983
1958
1890
1861
1978
2439
3250
3955
4095
4095
3806
3241
2639
2204
2044
1943
1910
1891
1861
1831
1824
1826
1848
1840
1839
1843
1826
1826
1835
1839
1839
1847
1842
1837
1851
1857
1864
1865
1882
1872
1887
1887
1894
1901
1907
1927
1920
1943
1955
1966
1991
2000
2027
2042
2070
2097
2114
2125
2135
2132
2130
2123
2090
2079
2044
2012
1998
1974
1962
1959
1945
1942
1933
1932
1930
1927
1934
1924
1927
1925
1930
1925
1921
1922
1918
1913
1921
1916
1908
1907
1911
1910
1911
1915
1912
1915
1920
1916
1910
1915
1919
1916
1918
1920
1920
1922
1927
1925
1925
1924
1924
1927
1933
1933
1934
1929
1941
1933
1934
1934
1930
1940
1942
1939
1943
1940
1939
1946
1940
1930
1940
1942
1942
1949
1947
1942
1944
1947
1945
1952
1952
1944
1950
1947
1955
1957
1948
1949
1946
1969
1985
1987
1995
1998
1999
2002
1986
1974
1967
1955
1974
1975
1985
1988
1987
1986
1981
1973
1970
1950
1980
1969
1896
1870
1947
2340
3117
3842
4095
4095
3857
3314
2739
2260
2071
1958
1921
1900
1880
1841
1834
1839
1863
1857
1860
1855
1851
1841
1846
1853
1858
1859
1868
1862
1865
1875
1875
1886
1894
1896
1901
1917
1909
1920
1933
1942
1959
1979
1987
1998
2028
2044
2061
2086
2111
2123
2143
2158
2162
2157
2164
2142
2117
2091
2066
2049
2041
2022
1992
1984
1978
1970
1963
1966
1958
1950
1966
1955
1944
1954
1955
1955
1966
1953
1948
1944
1948
1948
1948
1952
1949
1944
1943
1946
1946
1955
1953
1953
1956
1954
1955
1963
1957
1951
1953
1956
1960
1971
1957
1954
1958
1958
1972
1966
1973
1972
1972
1965
1967
1958
1973
1988
1980
1988
1987
1979
1984
1986
1974
1980
1987
1977
1983
1991
1986
1994
2003
2010
2017
2019
2031
2039
2045
2037
2029
2012
2012
2017
2014
2024
2029
2036
2024
2016
2014
2012
2025
2002
2004
2009
1965
1918
1977
2380
3137
3808
4095
4095
3675
3226
2786
2330
2115
2001
1943
1950
1965
1915
1890
1902
1939
1925
1906
1922
1911
1907
1911
1916
1922
1926
1925
1925
1930
1947
1946
1952
1962
1960
1981
1991
2010
1996
2007
2023
2031
2054
2063
2069
2092
2113
2130
2147
2167
2184
2201
2209
2207
2208
2200
2176
2147
2123
2082
2065
2043
2026
2010
2000
1981
1970
1976
1972
1972
1968
1969
1963
1968
1966
1957
1959
1959
1948
1962
1958
1956
1957
1953
1948
1951
1953
1957
1957
1952
1946
1949
1953
1949
1960
1961
1955
1953
1944
1938
1946
1940
1961
1953
1949
1957
1956
1964
1961
1970
1957
1954
1940
1953
1955
1962
1958
1954
1957
1976
1997
2000
2003
2000
2003
2002
2000
1982
1971
1959
1958
1972
1986
1993
1998
1977
1971
1970
1970
1970
1954
1970
1931
1871
1866
2136
2833
3603
4095
4095
3878
3320
2902
2407
2104
1964
1886
1873
1892
1865
1807
1816
1844
1840
1834
1824
1832
1829
1825
1837
1840
1852
1858
1848
1855
1861
1868
1872
1882
1888
1892
1914
1916
1923
1927
1942
1953
1961
1990
2001
2019
2048
2066
2083
2107
2126
2143
2157
2157
2149
2123
2106
2083
2044
2022
1986
1966
1955
1940
1929
1915
1922
1916
1919
1917
1915
1921
1920
1920
1910
1906
1905
1907
1896
1902
1907
1907
1915
1925
1920
1917
1920
1910
1913
1907
1905
1905
1906
1905
1912
1910
1909
1915
1909
1902
1914
1910
1914
1926
1922
1918
1911
1918
1914
1920
1924
1920
1923
1920
1919
1919
1925
1925
1928
1916
1926
1920
1919
1928
1912
1920
1944
1955
1970
1973
1972
1982
1981
1979
1962
1946
1937
1941
1940
1956
1972
1970
1965
1950
1951
1942
1949
1932
1958
1925
1863
1841
2033
2642
3462
4087
4095
4095
3543
3067
2492
2141
1991
1896
1868
1870
1841
1796
1799
1825
1832
1828
1831
1828
1831
1827
1830
1836
1839
1837
1848
1853
1862
1854
1868
1866
1876
1892
1891
1896
1895
1920
1917
1930
1951
1958
1969
1994
2009
2024
2057
2091
2105
2129
2145
2149
2153
2147
2124
2098
2084
2055
2032
2006
1986
1965
1967
1951
1937
1931
1927
1930
1934
1924
1921
1921
1921
1928
1912
1911
1913
1916
1925
1928
1920
1922
1913
1922
1921
1915
1916
1912
1917
1917
1921
1916
1924
1924
1923
1926
1924
1918
1929
1922
1917
1921
1930
1930
1928
1941
1927
1925
1932
1933
1930
1935
1942
1933
1929
1937
1930
1932
1936
1934
1937
1932
1940
1935
1940
1944
1942
1946
1940
1938
1936
1942
1934
1934
1937
1936
1948
1979
1984
1988
2000
1987
1991
1985
1975
1948
1945
1947
1948
1968
1975
1972
1964
1970
1960
1948
1944
1950
1966
1914
1849
1873
2166
2878
3681
4095
4095
4046
3452
2924
2342
2086
1954
1881
1869
1856
1819
1799
1808
1814
1816
1815
1822
1816
1817
1815
1817
1824
1829
1825
1835
1835
1844
1842
1850
1858
1856
1869
1870
1877
1883
1904
1887
1903
1915
1918
1948
1957
1975
1992
2021
2043
2072
2093
2107
2122
2121
2118
2107
2082
2065
2034
2011
1991
1977
1952
1942
1940
1930
1930
1918
1913
1900
1905
1912
1908
1903
1903
1900
1899
1907
1891
1900
1901
1902
1908
1893
1894
1898
1901
1900
1897
1893
1890
1892
1895
1899
1894
1895
1901
1893
1901
1904
1907
1907
1909
1899
1894
1900
1908
1898
1901
1904
1891
1908
1904
1913
1907
1905
1906
1898
1904
1905
1908
1913
1906
1912
1906
1912
1919
1916
1918
1920
1918
1917
1925
1919
1926
1918
1917
1915
1918
1930
1923
1921
1919
1914
1912
1917
1913
1922
1949
1956
1961
1976
1976
1979
1969
1956
1945
1941
1937
1948
1949
1946
1971
1949
1954
1946
1934
1937
1934
1962
1918
1854
1844
2037
2603
3430
4061
4095
4095
3616
3056
2453
2117
1975
1907
1883
1862
1832
1802
1808
1808
1816
1818
1817
1815
1813
1810
1802
1809
1817
1818
1822
1832
1826
1829
1838
1835
1847
1855
1853
1862
1873
1873
1883
1893
1895
1904
1925
1943
1961
1974
1998
2008
2041
2061
2079
2097
2100
2110
2110
2091
2070
2057
2026
2006
2000
1971
1952
1941
1924
1921
1920
1913
1918
1913
1916
1913
1918
1916
1913
1918
1903
1907
1902
1908
1901
1901
1907
1901
1899
1901
1900
1903
1907
1904
1911
1912
1918
1918
1918
1912
1915
1913
1917
1918
1918
1919
1917
1913
1926
1934
1923
1930
1932
1937
1933
1949
1925
1926
1944
1944
1943
1943
1953
1943
1951
1951
1942
1942
1959
1957
1959
1955
1953
1956
1964
1966
1966
1969
1966
1967
1966
1967
1964
1969
1965
1970
1973
1992
2005
2013
2027
2025
2030
2033
2030
2000
1989
1980
1988
1999
2012
2017
2015
2015
2015
2010
2001
1988
2005
1995
1931
1899
1978
2409
3186
3885
4095
4095
3787
3281
2747
2281
2092
1973
1956
1943
1923
1881
1853
1866
1897
1890
1884
1888
1887
1870
1878
1886
1880
1893
1896
1894
1890
1914
1912
1915
1926
1928
1933
1942
1958
1958
1964
1978
1983
1985
2014
2028
2035
2060
2070
2083
2107
2133
2153
2171
2182
2186
2176
2169
2147
2122
2106
2084
2060
2039
2017
2000
1992
1979
1981
1969
1974
1979
1974
1975
1967
1965
1964
1966
1963
1958
1965
1964
1961
1967
1964
1960
1971
1955
1958
1957
1951
1958
1955
1949
1953
1954
1958
1967
1969
1974
1958
1957
1952
1959
1965
1963
1965
1953
1969
1971
1970
1973
1965
1969
1980
1971
1971
1975
1975
1974
1973
1972
1967
1975
1981
1981
1976
1982
1974
1969
1968
1971
1980
1994
2016
2017
2016
2023
2034
2027
2020
2004
1988
1984
1981
1987
2004
2005
2009
1997
1990
1986
1989
1979
1974
1985
1944
1892
1901
2196
2898
3651
4095
4095
3884
3350
2911
2394
2114
1995
1917
1907
1919
1876
1846
1847
1880
1872
1860
1877
1875
1868
1872
1876
1870
1887
1884
1882
1886
1891
1891
1909
1926
1920
1929
1925
1941
1947
1951
1963
1966
1981
1990
2007
2013
2029
2058
2065
2098
2109
2134
2146
2156
2165
2150
2150
2125
2100
2073
2049
2027
2017
1991
1976
1970
1966
1961
1958
1951
1937
1949
1943
1944
1943
1945
1944
1932
1939
1925
1934
1941
1938
1944
1945
1943
1935
1942
1938
1944
1940
1940
1922
1928
1938
1921
1937
1936
1937
1940
1958
1941
1933
1938
1929
1936
1943
1948
1937
1944
1942
1943
1942
1949
1947
1944
1960
1956
1955
1954
1947
1945
1949
1958
1957
1962
1964
1967
1971
1961
1964
1963
1959
1962
1951
1951
1970
1981
2003
2013
2000
2017
2027
2022
2014
1996
1976
1970
1985
1992
1999
1998
1996
1982
1988
1987
1978
1961
1984
1975
1903
1863
1958
2427
3223
3921
4095
4095
3738
3248
2711
2252
2060
1940
1909
1917
1898
1857
1837
1849
1869
1862
1859
1853
1865
1851
1854
1853
1862
1862
1864
1875
1868
1878
1886
1895
1894
1900
1907
1913
1921
1924
1931
1941
1944
1958
1971
1991
2011
2027
2051
2058
2089
2114
2136
2154
2164
2172
2155
2151
2120
2091
2084
2055
2032
2010
1989
1983
1968
1968
1960
1953
1958
1955
1952
1945
1945
1945
1942
1946
1940
1942
1941
1944
1947
1935
1947
1939
1941
1944
1935
1940
1938
1945
1940
1943
1944
1935
1944
1938
1940
1943
1943
1950
1943
1954
1948
1951
1950
1945
1943
1949
1956
1949
1955
1946
1952
1947
1957
1952
1952
1959
1957
1951
1951
1959
1950
1962
1962
1965
1967
1964
1965
1967
1959
1968
1961
1958
1962
1951
1953
1960
1975
1985
2005
2002
2007
2024
2022
2013
1997
1977
1964
1969
1981
1985
1996
2004
1984
1990
1986
1981
1972
1982
1992
1936
1880
1901
2144
2813
3623
4095
4095
4095
3512
2984
2409
2123
1997
1925
1898
1887
1854
1828
1838
1850
1845
1842
1845
1847
1843
1840
1838
1844
1854
1860
1862
1867
1869
1865
1871
1883
1884
1889
1901
1895
1898
1918
1911
1926
1938
1940
1951
1964
1987
2005
2023
2040
2054
2082
2107
2121
2134
2125
2115
2090
2070
2054
2022
2010
1988
1957
1953
1939
1935
1941
1927
1920
1921
1917
1919
1916
1917
1913
1917
1921
1910
1915
1917
1908
1919
1920
1910
1923
1910
1913
1913
1911
1918
1914
1916
1915
1910
1918
1922
1921
1930
1928
1927
1928
1933
1929
1930
1930
1929
1934
1937
1938
1940
1939
1940
1943
1937
1946
1940
1937
1950
1942
1940
1950
1948
1946
1949
1944
1939
1944
1953
1955
1959
1951
1958
1958
1957
1968
1961
1960
1966
1961
1955
1958
1952
1961
1951
1956
1959
1962
1994
1992
2002
2010
2012
2012
2007
1994
1976
1970
1969
1972
1988
1998
2004
1991
1989
1978
1967
1960
1979
1992
1925
1875
1899
2208
2919
3705
4095
4095
4010
3425
2887
2335
2106
1980
1928
1909
1897
1859
1837
1849
1856
1852
1867
1853
1847
1846
1838
1845
1855
1866
1856
1869
1869
1872
1867
1877
1891
1880
1902
1895
1894
1911
1909
1921
1936
1946
1949
1961
1972
1988
2005
2032
2048
2067
2100
2110
2128
2135
2121
2123
2108
2096
2077
2052
2031
2003
1993
1981
1961
1962
1956
1947
1951
1950
1948
1946
1943
1944
1934
1937
1946
1933
1937
1930
1929
1934
1931
1940
1936
1935
1940
1935
1938
1941
1944
1935
1941
1946
1939
1935
1940
1934
1941
1951
1946
1947
1954
1955
1953
1956
1951
1956
1958
1977
1964
1971
1974
1960
1971
1969
1978
1973
1983
1985
1981
1986
1982
1977
1978
1984
1989
1987
1994
1998
1988
2002
2000
1990
1993
1993
1999
2000
2009
2009
2023
2044
2056
2059
2063
2076
2060
2063
2044
2027
2019
2030
2036
2046
2054
2042
2037
2040
2046
2032
2018
2035
2028
1974
1925
2018
2481
3262
3929
4095
4095
3713
3263
2747
2299
2119
2008
1962
1964
1962
1912
1905
1920
1930
1916
1914
1925
1928
1917
1917
1921
1932
1933
1927
1929
1935
1946
1949
1958
1960
1972
1982
1996
1992
1998
2021
2015
2033
2034
2038
2067
2075
2107
2118
2132
2151
2169
2188
2205
2216
2220
2213
2187
2174
2144
2127
2111
2081
2057
2040
2028
2018
2017
2015
1999
1999
1997
1984
1998
2000
1996
1996
1995
1989
1993
1997
1993
1991
1994
1997
1989
1992
1987
1986
1985
1990
1995
1983
1991
1994
1985
1992
1994
1982
1994
1997
1999
1986
1987
1981
1977
1986
1986
1990
1995
1997
1989
1991
1994
1991
1999
2007
1995
2009
2007
1993
1990
1995
1997
2007
2018
2029
2038
2050
2056
2051
2057
2044
2031
2014
2005
2002
2011
2023
2024
2031
2021
2014
2017
2021
2009
1984
1999
1976
1923
1905
2086
2690
3463
4066
4095
4038
3454
3021
2551
2195
2044
1945
1900
1930
1921
1865
1868
1888
1897
1892
1888
1881
1879
1883
1897
1901
1907
1909
1909
1925
1936
1938
1928
1934
1942
1950
1968
1976
1967
1989
1999
2002
2016
2016
2029
2041
2070
2094
2103
2134
2162
2163
2180
2185
2182
2179
2171
2151
2102
2078
2048
2031
2019
2003
1981
1976
1967
1956
1967
1949
1954
1959
1961
1945
1947
1953
1939
1949
1948
1943
1952
1957
1955
1948
1944
1952
1943
1949
1940
1955
1964
1946
1948
1932
1944
1947
1959
1946
1939
1951
1946
1948
1946
1943
1948
1947
1944
1947
1948
1962
1959
1958
1958
1950
1953
1957
1958
1957
1953
1961
1946
1953
1954
1939
1951
1966
1982
1996
2014
1997
1999
2001
2002
1991
1995
1972
1958
1978
1976
1993
1993
1990
1965
1979
1982
1973
1960
1968
1959
1888
1852
1953
2449
3272
3962
4095
4095
3657
3179
2661
2225
2048
1925
1878
1893
1876
1825
1824
1848
1867
1860
1848
1849
1846
1849
1844
1839
1848
1853
1864
1871
1873
1865
1872
1890
1899
1904
1922
1912
1920
1931
1934
1940
1967
1989
1990
2012
2023
2042
2066
2101
2117
2137
2158
2165
2164
2163
2152
2130
2112
2074
2034
2023
2001
1979
1977
1968
1963
1945
1949
1939
1934
1952
1944
1938
1936
1939
1926
1937
1934
1934
1940
1942
1936
1929
1946
1942
1944
1945
1931
1920
1933
1941
1937
1945
1942
1926
1936
1946
1940
1947
1946
1932
1944
1942
1944
1941
1940
1954
1935
1949
1953
1944
1962
1950
1943
1951
1957
1960
1949
1956
1953
1955
1958
1955
1944
1954
1960
1949
1962
1986
1994
1996
2008
2003
2001
2010
1997
1968
1965
1961
1976
1990
2001
2000
1979
1980
1983
1975
1976
1971
1984
1956
1879
1840
2000
2568
3407
4080
4095
4095
3665
3168
2593
2183
2022
1922
1896
1897
1882
1825
1820
1832
1852
1838
1848
1854
1823
1834
1831
1834
1852
1851
1855
1856
1854
1860
1867
1881
1896
1892
1907
1909
1910
1922
1929
1937
1946
1962
1971
1985
2008
2033
2052
2082
2104
2132
2144
2160
2166
2149
2147
2113
2088
2070
2038
2017
2001
1980
1959
1962
1954
1945
1947
1933
1933
1930
1934
1928
1922
1929
1928
1928
1921
1927
1918
1923
1923
1925
1921
1926
1924
1919
1922
1915
1918
1920
1917
1914
1927
1919
1925
1926
1930
1931
1929
1923
1919
1918
1932
1933
1926
1929
1922
1922
1928
1937
1925
1940
1931
1931
1938
1942
1938
1942
1941
1929
1943
1946
1941
1943
1949
1939
1944
1945
1953
1948
1953
1950
1938
1946
1944
1940
1950
1963
1975
1988
1998
1999
1998
2003
1998
1981
1979
1966
1948
1969
1974
1985
1986
1980
1981
1981
1983
1971
1960
1981
1952
1888
1860
1997
2499
3329
4025
4095
4095
3759
3191
2592
2187
2027
1928
1903
1888
1854
1824
1826
1828
1849
1848
1842
1841
1832
1833
1826
1833
1842
1840
1850
1853
1858
1857
1873
1870
1871
1889
1888
1892
1900
1903
1908
1918
1932
1942
1952
1976
1987
2005
2025
2047
2066
2092
2109
2121
2136
2126
2121
2106
2074
2054
2030
2006
1983
1965
1948
1934
1937
1929
1924
1920
1919
1908
1910
1908
1913
1916
1904
1914
1897
1907
1910
1907
1904
1904
1900
1902
1901
1901
1899
1892
1903
1900
1898
1907
1903
1898
1907
1907
1904
1905
1905
1906
1907
1913
1914
1908
1918
1920
1918
1921
1916
1921
1920
1924
1927
1920
1918
1919
1924
1922
1930
1931
1924
1928
1923
1931
1926
1928
1930
1927
1932
1936
1931
1932
1950
1933
1938
1942
1942
1938
1932
1936
1932
1968
1981
1979
1979
1986
1986
1991
1988
1967
1957
1951
1958
1961
1972
1975
1973
1974
1976
1970
1970
1951
1977
1967
1896
1861
1949
2368
3162
3896
4095
4095
3844
3273
2684
2231
2059
1954
1902
1893
1868
1835
1836
1832
1844
1850
1845
1846
1841
1830
1832
1838
1839
1843
1853
1849
1862
1862
1869
1878
1881
1883
1894
1896
1895
1912
1907
1924
1935
1945
1962
1973
2001
2015
2031
2064
2075
2098
2118
2128
2143
2141
2134
2121
2097
2082
2056
2035
2016
1996
1975
1967
1967
1960
1960
1950
1946
1945
1958
1955
1940
1953
1943
1940
1947
1946
1934
1938
1951
1930
1930
1953
1934
1947
1949
1942
1944
1951
1956
1948
1951
1956
1958
1957
1971
1961
1969
1967
1967
1958
1971
1976
1974
1993
1985
1971
1972
1977
1973
1993
1987
1983
1981
1994
1989
2002
1992
1987
1994
1991
1999
1996
2002
1997
2000
2007
2007
1999
2008
2003
1991
2009
2010
2034
2041
2058
2046
2050
2066
2053
2049
2028
2012
2013
2024
2040
2051
2031
2029
2025
2030
2030
2026
2004
2021
2007
1938
1910
2065
2635
3429
4043
4095
4095
3542
3126
2608
2240
2084
1982
1947
1944
1937
1886
1876
1903
1914
1898
1900
1903
1898
1903
1911
1915
1924
1917
1922
1921
1930
1941
1938
1950
1955
1966
1967
1988
1980
1995
2002
2007
2017
2034
2054
2071
2090
2103
2119
2129
2162
2171
2197
2203
2198
2204
2192
2176
2150
2117
2088
2066
2036
2031
2008
1999
1991
1986
1977
1982
1979
1977
1971
1965
1966
1966
1968
1969
1972
1962
1966
1969
1960
1975
1968
1963
1970
1967
1969
1971
1965
1952
1956
1966
1961
1967
1967
1958
1973
1977
1969
1984
1964
1965
1961
1967
1968
1965
1976
1967
1981
1982
1983
1979
1975
1981
1982
1982
1993
1985
1980
1986
1977
1983
1980
1985
1980
2005
2024
2019
2039
2045
2031
2033
2018
2004
1991
1995
1994
1993
2007
2025
2012
2006
2015
1995
1995
1982
1993
1973
1922
1874
1957
2448
3253
3919
4095
4095
3603
3152
2668
2237
2056
1954
1903
1911
1911
1862
1841
1867
1886
1870
1874
1876
1876
1862
1857
1865
1870
1890
1888
1897
1907
1907
1914
1924
1925
1938
1944
1938
1947
1961
1979
1984
2003
2008
2030
2046
2059
2077
2091
2116
2132
2169
2176
2191
2192
2183
2155
2137
2112
2089
2058
2033
2010
1989
1985
1977
1970
1965
1966
1951
1952
1948
1954
1957
1945
1946
1938
1940
1942
1943
1953
1949
1941
1945
1937
1936
1943
1951
1938
1947
1950
1940
1940
1942
1941
1942
1949
1952
1943
1942
1938
1941
1942
1954
1950
1945
1946
1943
1947
1950
1954
1955
1960
1957
1960
1956
1955
1950
1956
1964
1952
1959
1956
1951
1968
1974
1957
1958
1950
1958
1981
2004
2004
2009
2014
2014
2013
2003
1979
1973
1967
1979
1991
1990
1996
1980
1977
1989
1991
1983
1962
1981
1945
1883
1852
1995
2546
3374
4035
4095
4095
3638
3161
2608
2200
2040
1930
1895
1895
1876
1827
1818
1849
1853
1841
1854
1841
1852
1855
1849
1850
1859
1857
1861
1864
1863
1872
1886
1894
1898
1913
1915
1915
1927
1928
1936
1954
1961
1970
1979
2014
2026
2038
2071
2085
2117
2144
2171
2165
2171
2166
2156
2134
2108
2077
2036
2018
1989
1990
1980
1968
1954
1950
1940
1947
1949
1933
1939
1928
1935
1930
1930
1930
1923
1920
1931
1924
1922
1933
1925
1927
1926
1920
1923
1923
1929
1929
1930
1934
1926
1927
1932
1927
1931
1936
1934
1934
1933
1932
1935
1936
1939
1934
1937
1936
1936
1943
1943
1939
1940
1937
1942
1942
1949
1947
1937
1942
1936
1940
1946
1946
1945
1943
1941
1948
1952
1952
1948
1941
1942
1937
1934
1933
1938
1956
1979
1984
1988
1991
2002
1999
1994
1982
1960
1952
1949
1961
1973
1977
1982
1969
1978
1971
1965
1945
1957
1972
1925
1868
1884
2169
2863
3689
4095
4095
4064
3452
2909
2351
2095
1960
1911
1890
1870
1843
1816
1822
1842
1833
1831
1828
1835
1834
1828
1836
1840
1840
1852
1849
1859
1863
1874
1873
1872
1881
1887
1888
1898
1902
1904
1914
1920
1931
1939
1964
1978
2002
2019
2045
2049
2083
2110
2126
2150
2137
2135
2117
2098
2075
2056
2019
2003
1988
1968
1953
1947
1935
1928
1937
1917
1917
1918
1912
1916
1920
1913
1914
1909
1910
1910
1909
1908
1898
1898
1896
1898
1902
1903
1897
1897
1897
1899
1895
1892
1900
1903
1905
1908
1902
1904
1910
1904
1916
1902
1904
1913
1913
1915
1919
1908
1909
1922
1915
1920
1927
1920
1921
1923
1928
1928
1931
1930
1928
1925
1932
1928
1934
1939
1938
1928
1933
1940
1931
1937
1940
1942
1930
1942
1944
1938
1943
1925
1924
1938
1957
1970
1976
1989
1982
1990
1994
1983
1967
1966
1958
1951
1978
1980
1984
1980
1987
1981
1978
1968
1956
1981
1967
1905
1864
1974
2409
3210
3935
4095
4095
3841
3279
2669
2222
2059
1953
1931
1905
1874
1853
1860
1857
1865
1863
1855
1870
1864
1860
1849
1858
1872
1870
1880
1888
1882
1896
1901
1910
1920
1921
1924
1924
1935
1954
1961
1979
1987
1995
2011
2024
2047
2067
2091
2116
2135
2150
2177
2185
2190
2206
2189
2178
2164
2146
2112
2083
2057
2043
2034
2024
2009
1995
1994
1991
1997
2000
2000
1988
1994
1986
1999
2003
1990
1994
1985
1983
1985
1982
1967
1972
1977
1975
1971
1993
1984
1983
1983
1980
1990
1995
1999
1996
1986
1982
1996
2001
2006
1991
1991
1995
1999
1994
1981
1992
1994
2003
1998
1995
1996
1998
2006
2006
1994
2007
2005
2011
2005
2002
2004
2009
2020
1998
2012
2010
2029
2047
2040
2051
2056
2059
2054
2052
2026
2011
2010
2019
2021
2039
2046
2036
2035
2033
2030
2023
2003
2017
2012
1955
1909
1997
2457
3260
3919
4095
4095
3608
3160
2704
2267
2086
1971
1930
1946
1945
1889
1866
1899
1922
1912
1891
1895
1892
1901
1901
1900
1914
1920
1929
1921
1928
1927
1937
1956
1959
1959
1963
1969
1974
1983
1988
2000
2014
2022
2048
2060
2074
2088
2107
2124
2151
2180
2187
2202
2204
2192
2186
2166
2129
2108
2078
2050
2036
2020
2006
1981
1970
1963
1965
1959
1958
1957
1958
1967
1962
1952
1953
1948
1952
1957
1949
1960
1956
1956
1962
1947
1949
1942
1942
1951
1946
1950
1950
1952
1963
1958
1950
1945
1948
1953
1960
1949
1942
1943
1948
1956
1958
1962
1955
1964
1976
1965
1960
1956
1963
1956
1955
1958
1959
1962
1967
1953
1966
1962
1986
2001
2009
2015
2027
2035
2020
2019
1994
1976
1979
1989
1980
1996
1994
2001
1989
1995
1999
1983
1975
1982
1972
1906
1868
1931
2375
3162
3856
4095
4095
3685
3189
2726
2266
2067
1961
1891
1891
1914
1847
1828
1854
1874
1863
1869
1866
1856
1857
1856
1853
1865
1882
1883
1886
1893
1893
1913
1919
1917
1925
1926
1942
1949
1960
1959
1971
1984
1994
2020
2033
2044
2072
2093
2119
2155
2164
2180
2180
2187
2187
2176
2154
2119
2088
2055
2033
2016
1986
1985
1984
1968
1966
1954
1941
1945
1941
1945
1937
1949
1954
1938
1942
1942
1931
1945
1952
1935
1945
1939
1928
1943
1943
1944
1951
1948
1942
1937
1937
1939
1950
1944
1937
1936
1944
1948
1945
1949
1941
1949
1949
1948
1940
1939
1961
1953
1949
1963
1955
1967
1979
1966
1959
1958
1955
1955
1959
1958
1960
1958
1958
1956
1960
1983
1996
2005
2002
2007
2004
2014
2013
1990
1973
1962
1971
1984
1995
2002
1990
1986
1992
1987
1981
1965
1992
1958
1883
1850
1946
2483
3329
4006
4095
4095
3653
3157
2634
2212
2041
1944
1897
1905
1893
1853
1836
1847
1861
1850
1847
1855
1854
1845
1850
1852
1841
1856
1860
1871
1893
1889
1898
1889
1883
1902
1914
1919
1938
1947
1947
1962
1961
1979
1998
2013
2032
2065
2075
2107
2135
2156
2170
2176
2179
2185
2177
2150
2118
2075
2064
2036
2019
2009
1996
1992
1969
1966
1958
1963
1966
1962
1952
1945
1954
1958
1962
1957
1942
1944
1940
1955
1947
1952
1948
1955
1963
1955
1953
1943
1937
1960
1951
1955
1960
1949
1957
1963
1965
1951
1957
1956
1953
1962
1950
1953
1962
1977
1974
1964
1963
1966
1963
1964
1965
1962
1959
1970
1968
1969
1973
1962
1958
1967
1976
2007
1996
2007
2016
2012
2013
2011
1983
1976
1973
1969
1988
1983
1998
1993
1985
1989
1973
1964
1943
1967
1975
1910
1848
1900
2274
3074
3872
4095
4095
3861
3280
2764
2270
2070
1944
1881
1875
1877
1824
1809
1832
1850
1845
1836
1824
1836
1838
1833
1838
1835
1841
1851
1853
1852
1864
1876
1870
1884
1889
1893
1898
1903
1905
1907
1929
1940
1954
1972
1990
2018
2040
2059
2076
2103
2132
2154
2156
2170
2156
2141
2111
2098
2043
2019
2021
1984
1971
1961
1942
1926
1934
1934
1924
1918
1920
1920
1910
1920
1910
1903
1911
1913
1916
1907
1915
1914
1907
1929
1920
1907
1915
1909
1905
1921
1916
1915
1916
1926
1915
1914
1912
1919
1924
1925
1921
1918
1918
1922
1926
1929
1922
1924
1930
1920
1926
1915
1928
1934
1930
1931
1930
1933
1936
1932
1927
1931
1926
1927
1930
1942
1949
1965
1966
1969
1983
1992
1985
1983
1957
1944
1937
1944
1955
1965
1981
1978
1970
1966
1963
1956
1941
1955
1955
1895
1836
1864
2182
2928
3746
4095
4095
4026
3408
2883
2305
2059
1940
1867
1862
1851
1805
1786
1799
1820
1823
1822
1817
1814
1810
1806
1808
1820
1814
1821
1829
1822
1840
1843
1844
1856
1851
1868
1880
1882
1893
1894
1894
1916
1936
1940
1963
1987
2005
2033
2057
2081
2099
2131
2146
2144
2141
2121
2101
2072
2045
2015
1990
1974
1946
1945
1931
1923
1923
1915
1909
1906
1913
1904
1905
1899
1896
1889
1891
1892
1891
1894
1895
1885
1892
1885
1883
1894
1881
1886
1879
1883
1883
1884
1880
1881
1879
1885
1887
1889
1890
1889
1892
1892
1897
1893
1897
1898
1889
1891
1895
1895
1899
1900
1904
1902
1904
1907
1904
1908
1907
1899
1904
1905
1904
1907
1916
1916
1910
1913
1916
1914
1920
1910
1907
1919
1920
1921
1926
1913
1911
1928
1913
1919
1922
1917
1918
1918
1930
1931
1958
1975
1962
1967
1984
1975
1975
1956
1936
1924
1931
1940
1951
1956
1952
1946
1952
1946
1932
1923
1931
1951
1894
1840
1845
2058
2698
3530
4095
4095
4095
3553
2987
2390
2087
1955
1883
1865
1835
1809
1790
1789
1803
1804
1807
1797
1791
1794
1792
1798
1805
1803
1814
1811
1825
1821
1832
1839
1838
1855
1854
1862
1863
1868
1874
1868
1888
1890
1902
1923
1936
1954
1976
1995
2024
2044
2073
2090
2096
2098
2099
2095
2077
2055
2027
2006
1971
1968
1952
1930
1928
1908
1893
1886
1891
1881
1881
1879
1875
1875
1881
1876
1879
1879
1877
1871
1874
1871
1864
1868
1864
1857
1867
1871
1871
1878
1875
1872
1875
1874
1873
1874
1875
1877
1872
1882
1884
1878
1895
1880
1880
1877
1890
1885
1887
1891
1889
1890
1900
1896
1894
1898
1898
1897
1893
1909
1897
1911
1926
1906
1914
1909
1907
1910
1912
1902
1914
1921
1919
1922
1920
1931
1919
1923
1925
1916
1921
1937
1932
1928
1930
1918
1934
1937
1960
1967
1974
1976
1983
1985
1990
1976
1962
1948
1943
1961
1983
1992
1994
1982
1972
1967
1964
1963
1961
1986
1941
1871
1884
2133
2784
3604
4095
4095
4095
3527
3014
2430
2131
2005
1928
1910
1907
1876
1840
1844
1851
1861
1857
1866
1868
1848
1857
1863
1869
1868
1871
1866
1866
1884
1887
1883
1899
1907
1902
1927
1937
1942
1951
1964
1977
1983
2002
2014
2032
2045
2071
2080
2101
2129
2145
2172
2190
2187
2189
2186
2167
2149
2135
2103
2069
2060
2032
2012
2019
1997
1984
1988
1982
1980
1981
1981
1976
1973
1984
1980
1973
1976
1977
1978
1979
1981
1973
1966
1972
1976
1969
1980
1988
1975
1981
1982
1988
1991
1989
1982
1982
1982
1981
1981
1980
1989
1987
1994
1992
1989
1998
1997
1993
2001
1997
1992
1996
1990
1989
1998
2002
1995
1996
2000
2002
2008
2006
2000
1998
2013
2033
2036
2048
2048
2044
2055
2045
2027
2016
1990
1998
2015
2029
2047
2035
2013
2018
2023
2031
2022
1991
2018
1974
1924
1905
2137
2806
3594
4095
4095
4013
3426
2997
2466
2154
2015
1932
1932
1942
1918
1858
1859
1889
1901
1884
1890
1897
1886
1881
1884
1884
1895
1904
1902
1908
1907
1917
1934
1941
1936
1951
1951
1969
1984
1977
1996
1998
2003
2021
2043
2057
2079
2103
2117
2136
2172
2182
2196
2205
2201
2188
2170
2145
2100
2084
2067
2042
2030
2003
2000
1993
1991
1991
1976
1964
1972
1964
1960
1970
1961
1955
1973
1967
1958
1963
1964
1963
1974
1963
1973
1967
1969
1974
1964
1963
1970
1965
1973
1974
1960
1966
1965
1965
1968
1968
1973
1976
1980
1967
1973
1976
1974
1974
1970
1976
1973
1986
1986
1970
1979
1986
1988
1985
1988
1974
1982
1977
1985
1974
1990
1987
1974
1991
1989
2015
2034
2034
2028
2030
2030
2022
2020
1997
1989
1985
2001
2010
2019
2025
2011
2003
2010
1997
1995
1977
2005
1973
1911
1868
1973
2496
3326
3995
4095
4095
3690
3220
2687
2220
2041
1938
1913
1907
1896
1841
1828
1848
1878
1851
1847
1859
1856
1848
1861
1854
1854
1868
1864
1871
1881
1880
1877
1888
1891
1906
1924
1923
1944
1938
1939
1947
1951
1970
1994
2004
2021
2037
2065
2083
2106
2129
2147
2163
2177
2170
2158
2138
2108
2079
2047
2037
2017
2000
1983
1965
1955
1946
1951
1942
1946
1937
1937
1938
1929
1926
1931
1936
1940
1932
1934
1932
1933
1942
1933
1925
1934
1934
1926
1924
1931
1926
1934
1926
1929
1931
1925
1937
1938
1929
1934
1932
1926
1938
1929
1931
1942
1927
1929
1931
1928
1950
1949
1934
1945
1938
1941
1941
1943
1938
1928
1942
1940
1926
1942
1937
1940
1945
1946
1946
1941
1948
1941
1947
1952
1949
1946
1946
1967
1978
1983
1989
1982
1990
1999
1977
1976
1958
1943
1967
1968
1973
1977
1972
1976
1965
1969
1958
1937
1959
1954
1895
1833
1899
2297
3088
3857
4095
4095
3850
3312
2768
2257
2053
1924
1868
1870
1858
1808
1789
1806
1825
1825
1819
1820
1816
1813
1809
1811
1817
1818
1834
1840
1841
1839
1840
1851
1856
1867
1881
1868
1876
1884
1893
1904
1923
1928
1932
1960
1975
1989
2016
2042
2054
2090
2112
2121
2137
2133
2120
2108
2088
2065
2038
2017
1995
1968
1953
1935
1931
1926
1925
1911
1898
1906
1908
1908
1919
1910
1903
1904
1893
1894
1894
1895
1900
1902
1898
1901
1893
1903
1898
1896
1901
1883
1898
1895
1895
1897
1894
1892
1897
1903
1908
1905
1909
1913
1897
1899
1899
1910
1906
1903
1910
1896
1906
1912
1914
1921
1920
1907
1911
1908
1909
1911
1914
1906
1905
1911
1913
1918
1918
1916
1908
1917
1916
1897
1919
1913
1925
1952
1954
1963
1966
1971
1972
1956
1945
1929
1914
1928
1933
1940
1951
1944
1941
1940
1935
1922
1902
1931
1930
1854
1814
1885
2307
3104
3847
4095
4095
3824
3266
2695
2211
2011
1890
1858
1839
1823
1781
1772
1779
1794
1799
1788
1794
1788
1787
1781
1793
1795
1797
1807
1811
1800
1818
1826
1824
1830
1831
1832
1845
1858
1860
1859
1874
1891
1897
1914
1929
1938
1964
1986
2010
2034
2055
2071
2089
2089
2096
2092
2072
2049
2025
1999
1981
1957
1940
1921
1907
1904
1898
1897
1893
1887
1879
1876
1881
1889
1883
1882
1882
1874
1883
1882
1886
1879
1881
1877
1876
1875
1876
1875
1876
1879
1880
1875
1875
1875
1876
1880
1878
1883
1878
1880
1889
1888
1890
1880
1889
1886
1885
1889
1886
1887
1903
1901
1904
1896
1890
1900
1901
1902
1903
1899
1907
1911
1908
1914
1913
1912
1916
1915
1908
1917
1910
1913
1915
1914
1926
1914
1927
1925
1915
1930
1933
1926
1928
1911
1924
1928
1948
1970
1967
1977
1982
1985
1987
1982
1957
1948
1951
1948
1955
1967
1968
1964
1969
1962
1953
1955
1931
1966
1940
1872
1848
1953
2405
3209
3928
4095
4095
3800
3235
2632
2203
2040
1937
1903
1883
1852
1823
1817
1823
1837
1833
1838
1831
1835
1825
1837
1843
1851
1842
1845
1861
1853
1858
1864
1867
1862
1886
1888
1889
1909
1907
1910
1932
1947
1950
1971
1991
1987
2016
2041
2057
2083
2104
2122
2129
2153
2152
2153
2143
2120
2094
2075
2053
2031
2015
2000
1989
1975
1976
1963
1960
1963
1955
1953
1954
1950
1958
1955
1961
1960
1946
1950
1948
1949
1945
1947
1942
1946
1947
1952
1952
1954
1955
1960
1965
1959
1965
1969
1955
1970
1967
1968
1976
1972
1980
1971
1981
1977
1975
1977
1983
1992
1988
1995
1986
1983
2001
2003
1996
2007
1995
1997
1991
1991
1993
2006
2017
2016
2009
2013
2010
2006
2010
2003
2007
2005
2006
2004
2009
2018
2022
2028
2040
2051
2046
2063
2066
2071
2067
2054
2030
2024
2018
2029
2041
2046
2057
2053
2047
2049
2045
2033
2011
2036
2004
1946
1932
2096
2661
3461
4072
4095
4095
3595
3150
2604
2223
2083
1982
1974
1961
1939
1889
1893
1917
1931
1910
1913
1909
1913
1910
1915
1924
1932
1932
1924
1935
1934
1947
1944
1958
1966
1968
1981
1979
1993
1996
2006
2017
2032
2051
2067
2079
2097
2100
2129
2144
2174
2193
2202
2212
2216
2221
2206
2186
2168
2148
2119
2091
2063
2039
2032
2012
2007
1994
1982
1997
1996
1993
1999
1982
1983
1985
1986
1980
1989
1982
1979
1976
1985
1982
1974
1984
1980
1978
1985
1979
1973
1973
1976
1984
1979
1982
1977
1978
1979
1972
1975
1970
1975
1978
1976
1968
1982
1980
1977
1979
1980
1977
1972
1977
1982
1975
1991
1991
1979
1979
1986
1972
1983
1997
1991
1991
1978
1983
1983
1990
2015
2013
2030
2040
2043
2029
2027
2009
2006
1984
1986
1996
2007
2021
2014
2007
1991
1992
1996
1993
1978
2007
1978
1902
1882
2070
2650
3445
4061
4095
4095
3517
3077
2536
2180
2028
1931
1905
1920
1892
1842
1841
1862
1873
1859
1865
1863
1877
1874
1867
1871
1877
1868
1886
1891
1879
1903
1900
1903
1911
1925
1925
1945
1956
1959
1961
1968
1981
1997
2027
2028
2035
2070
2084
2114
2130
2166
2169
2180
2189
2166
2144
2127
2111
2075
2062
2038
2009
1993
1979
1964
1955
1954
1943
1950
1949
1950
1941
1933
1935
1938
1948
1949
1942
1936
1937
1935
1943
1944
1943
1943
1948
1947
1946
1941
1940
1946
1938
1943
1939
1946
1943
1946
1953
1948
1947
1947
1947
1948
1948
1938
1937
1939
1946
1943
1943
1947
1949
1950
1963
1959
1952
1947
1951
1949
1957
1960
1957
1951
1959
1949
1951
1962
1953
1962
1963
1968
1953
1961
1961
1958
1952
1959
1961
1977
1996
1995
2001
2003
2022
2004
2006
1982
1968
1960
1975
1974
1992
2001
1993
1988
1978
1981
1971
1962
1971
1966
1899
1859
1928
2348
3139
3856
4095
4095
3813
3299
2753
2268
2064
1941
1899
1891
1881
1830
1817
1821
1847
1839
1845
1846
1846
1836
1829
1838
1843
1847
1850
1855
1856
1866
1872
1878
1884
1890
1893
1896
1894
1907
1916
1915
1946
1946
1955
1981
1993
2016
2041
2054
2078
2099
2127
2140
2153
2148
2141
2117
2102
2087
2062
2029
2011
1987
1968
1965
1952
1935
1936
1930
1934
1918
1910
1927
1911
1931
1927
1921
1924
1924
1931
1912
1927
1929
1920
1926
1926
1913
1919
1925
1922
1916
1922
1915
1919
1931
1927
1922
1931
1922
1922
1922
1928
1927
1926
1935
1932
1931
1928
1933
1932
1939
1949
1939
1941
1939
1939
1929
1945
1933
1934
1945
1943
1942
1939
1939
1941
1952
1950
1952
1948
1945
1949
1943
1945
1938
1936
1941
1950
1971
1982
1986
2001
2003
1999
1990
1984
1965
1956
1954
1961
1970
1981
1980
1976
1982
1978
1974
1962
1957
1981
1936
1878
1857
2066
2663
3495
4095
4095
4095
3607
3059
2457
2139
1999
1922
1897
1879
1845
1825
1826
1829
1846
1835
1841
1838
1839
1830
1830
1842
1844
1860
1852
1858
1866
1856
1873
1874
1878
1886
1892
1895
1899
1899
1922
1920
1937
1949
1952
1975
1995
2016
2035
2051
2082
2106
2107
2145
2141
2140
2137
2119
2081
2063
2035
2006
1989
1980
1973
1950
1960
1932
1945
1938
1934
1925
1920
1931
1931
1934
1929
1922
1926
1931
1919
1921
1921
1926
1926
1934
1930
1929
1918
1922
1913
1921
1934
1934
1941
1926
1927
1925
1939
1949
1957
1953
1960
1952
1952
1948
1946
1942
1958
1961
1967
1968
1958
1963
1968
1968
1957
1976
1973
1976
1979
1977
1974
1982
1977
1979
1977
1990
1993
1986
1988
1990
1989
1986
1994
1987
1993
1996
1996
1995
2017
2031
2037
2043
2044
2055
2050
2031
2006
1999
2005
2018
2037
2047
2039
2036
2027
2021
2028
2011
2000
2020
1996
1931
1907
2105
2697
3514
4095
4095
4095
3531
3089
2567
2213
2055
1965
1940
1956
1948
1889
1882
1901
1916
1907
1910
1916
1909
1910
1912
1917
1914
1921
1930
1934
1941
1934
1942
1955
1965
1967
1985
1984
1990
1997
2010
2010
2023
2043
2051
2075
2091
2105
2126
2135
2163
2179
2206
2212
2219
2216
2213
2206
2177
2155
2121
2096
2077
2057
2041
2027
2004
1993
1998
1994
2000
2001
1999
1991
1989
1987
1980
1976
1985
1976
1978
1982
1992
1985
1991
1983
1971
1976
1980
1981
1978
1977
1985
1978
1978
1988
1974
1978
1990
1968
1972
1981
1972
1965
1976
1972
1969
1979
1983
1971
1979
1980
1982
1984
1988
1992
1985
1985
1974
1972
1981
1980
1991
1978
1979
1972
1990
2017
2028
2042
2038
2018
2018
2013
2001
1994
1982
1990
2000
2014
2021
2001
1999
1997
2007
2006
1971
1985
1977
1911
1880
1966
2447
3251
3921
4095
4095
3648
3171
2675
2242
2053
1951
1891
1899
1898
1850
1838
1863
1875
1868
1869
1877
1881
1876
1864
1874
1877
1880
1886
1890
1893
1905
1904
1912
1919
1925
1932
1941
1952
1951
1964
1977
1975
1995
2018
2023
2047
2063
2078
2100
2123
2141
2157
2185
2170
2170
2148
2130
2107
2088
2066
2041
2016
1990
1976
1968
1969
1956
1946
1945
1941
1941
1949
1942
1940
1937
1944
1942
1943
1943
1940
1957
1950
1951
1946
1944
1940
1944
1945
1939
1952
1949
1943
1950
1939
1944
1946
1953
1951
1947
1957
1953
1947
1944
1942
1943
1955
1951
1945
1953
1954
1958
1958
1954
1940
1956
1961
1961
1974
1956
1961
1954
1955
1954
1959
1968
1958
1951
1956
1958
1962
1970
1955
1964
1976
1997
2015
2021
2012
2019
2022
2013
1999
1983
1971
1971
1988
1986
1999
1989
1989
1989
1983
1989
1972
1973
1984
1934
1867
1877
2156
2863
3670
4095
4095
4056
3462
2955
2404
2116
1984
1914
1898
1896
1864
1827
1829
1857
1855
1846
1843
1846
1835
1835
1846
1842
1859
1857
1862
1857
1860
1875
1884
1890
1897
1899
1905
1919
1918
1921
1935
1949
1963
1972
1985
2003
2020
2039
2063
2086
2110
2136
2150
2163
2161
2165
2164
2132
2114
2078
2051
2031
2015
1995
1979
1972
1970
1959
1966
1957
1949
1946
1945
1944
1938
1944
1946
1938
1946
1942
1937
1949
1939
1934
1944
1935
1936
1939
1942
1941
1940
1944
1935
1937
1944
1934
1942
1946
1947
1940
1954
1944
1933
1949
1946
1948
1958
1949
1954
1956
1958
1953
1943
1959
1956
1953
1963
1952
1952
1957
1968
1955
1962
1963
1961
1963
1974
1956
1965
1979
1966
1978
1970
1968
1965
1969
1969
1965
1979
2001
2012
2012
2016
2009
2030
2024
2004
1991
1984
1978
1992
2003
2009
2006
1997
1997
1994
1985
1989
1964
1991
1979
1914
1874
1975
2452
3263
3966
4095
4095
3795
3277
2699
2238
2066
1958
1914
1906
1891
1828
1832
1840
1855
1857
1854
1859
1844
1851
1847
1844
1860
1862
1865
1868
1877
1876
1885
1888
1891
1901
1911
1921
1925
1926
1940
1946
1956
1965
1984
1997
2012
2030
2055
2068
2099
2124
2141
2165
2167
2167
2158
2143
2124
2098
2075
2047
2026
2009
1991
1972
1967
1963
1952
1953
1948
1949
1950
1944
1941
1938
1941
1952
1938
1918
1933
1925
1935
1939
1935
1923
1930
1926
1929
1927
1918
1934
1925
1930
1934
1931
1933
1939
1931
1936
1943
1930
1944
1939
1934
1942
1935
1939
1941
1955
1953
1952
1957
1947
1949
1945
1958
1947
1952
1957
1952
1944
1955
1960
1951
1963
1952
1958
1965
1955
1957
1958
1957
1953
1946
1964
1964
1996
1995
1992
2008
2009
2017
2005
1993
1976
1964
1969
1984
1983
1998
1992
1991
1987
1982
1976
1963
1965
1991
1950
1890
1883
2043
2616
3440
4084
4095
4095
3642
3088
2506
2170
2008
1923
1902
1878
1852
1829
1818
1829
1849
1842
1838
1839
1831
1826
1826
1838
1841
1848
1860
1854
1853
1864
1863
1863
1878
1878
1885
1899
1896
1892
1908
1919
1928
1937
1949
1965
1980
2010
2020
2036
2067
2092
2101
2130
2128
2120
2117
2091
2074
2044
2030
2012
1979
1965
1944
1943
1929
1935
1919
1912
1919
1908
1909
1919
1913
1913
1913
1901
1909
1907
1900
1901
1897
1907
1901
1900
1897
1901
1891
1898
1893
1886
1905
1901
1898
1900
1889
1899
1909
1914
1904
1908
1903
1902
1909
1917
1915
1907
1922
1922
1915
1915
1915
1912
1916
1928
1917
1922
1926
1925
1922
1930
1928
1929
1925
1928
1927
1926
1925
1930
1928
1928
1935
1925
1926
1935
1928
1939
1940
1940
1941
1941
1937
1936
1935
1928
1930
1931
1949
1978
1976
1986
1984
1994
1996
1993
1967
1955
1940
1949
1958
1972
1978
1968
1974
1971
1963
1958
1937
1959
1954
1904
1854
1907
2255
2992
3753
4095
4095
3921
3350
2784
2275
2070
1948
1907
1874
1869
1823
1813
1826
1837
1832
1829
1836
1827
1828
1827
1818
1828
1843
1840
1845
1848
1853
1861
1862
1864
1865
1877
1882
1889
1887
1906
1902
1921
1924
1938
1963
1964
1984
2000
2015
2047
2068
2091
2103
2111
2134
2115
2120
2111
2071
2060
2034
2014
2005
1984
1965
1953
1937
1947
1942
1933
1931
1928
1920
1928
1921
1918
1920
1914
1916
1920
1919
1920
1919
1920
1913
1915
1917
1915
1915
1918
1915
1916
1916
1916
1917
1916
1919
1916
1922
1926
1920
1925
1922
1923
1932
1933
1936
1939
1937
1930
1934
1945
1940
1937
1946
1947
1945
1949
1943
1947
1951
1952
1952
1949
1957
1959
1956
1964
1949
1961
1966
1965
1963
1965
1970
1969
1973
1971
1963
1967
1961
1960
1977
1991
2012
2011
2021
2018
2036
2035
2023
2012
1991
1986
1996
2010
2014
2020
2012
2007
2011
2008
2005
2008
2007
2027
1966
1908
1964
2293
3030
3783
4095
4095
3943
3387
2855
2337
2130
2005
1963
1943
1935
1893
1872
1886
1900
1906
1907
1908
1902
1905
1911
1918
1918
1912
1905
1909
1920
1934
1933
1938
1952
1957
1964
1969
1975
1980
2007
1999
2007
2027
2039
2052
2078
2095
2093
2118
2138
2163
2185
2199
2214
2218
2210
2199
2191
2165
2144
2116
2080
2061
2046
2048
2039
2020
2026
2012
2029
2024
2009
2016
2009
2014
2016
2012
2009
1993
2006
1996
1991
2008
2001
1997
2003
1997
1990
1998
2025
2024
2020
2022
2000
1993
2012
2015
2019
2023
2012
2009
2024
2027
2022
2015
2025
2023
2032
2033
2030
2029
2036
2044
2036
2038
2041
2031
2045
2050
2034
2040
2048
2057
2068
2082
2079
2077
2084
2096
2084
2072
2070
2052
2064
2058
2066
2075
2088
2085
2084
2068
2076
2073
2045
2052
2041
2008
1974
2062
2507
3276
3941
4095
4095
3632
3173
2752
2337
2130
2024
1972
1982
2006
1961
1933
1954
1978
1972
1966
1977
1985
1970
1959
1986
1985
1983
1997
1983
1992
2010
2008
2014
2017
2035
2043
2051
2055
2060
2066
2085
2103
2107
2135
2150
2152
2178
2187
2200
2228
2242
2248
2266
2259
2247
2233
2217
2183
2148
2117
2083
2067
2056
2037
2025
2014
2011
2006
2005
2004
2009
2005
2005
1997
1979
1996
2001
1997
1994
1985
1988
1989
1979
1981
1980
1972
1989
1978
1970
1984
1978
1973
1976
1968
1962
1971
1976
1967
1966
1967
1962
1973
1970
1973
1965
1955
1972
1967
1977
1965
1963
1955
1978
2003
1998
2005
2023
2012
2002
2000
1974
1963
1956
1969
1971
1992
1992
1987
1976
1973
1980
1965
1948
1947
1949
1894
1869
1961
2440
3256
3915
4095
4095
3568
3104
2619
2192
2016
1915
1865
1877
1886
1827
1808
1832
1858
1844
1846
1845
1842
1836
1839
1851
1843
1847
1856
1860
1872
1884
1879
1891
1904
1907
1914
1907
1912
1934
1954
1963
1971
1986
1989
2015
2048
2069
2084
2115
2131
2139
2166
2165
2165
2148
2129
2087
2052
2029
2012
1981
1963
1956
1931
1936
1926
1922
1907
1913
1908
1898
1914
1905
1913
1914
1904
1897
1904
1914
1904
1918
1920
1907
1915
1906
1909
1913
1923
1913
1896
1906
1896
1909
1917
1912
1918
1905
1916
1912
1899
1912
1913
1903
1920
1911
1913
1919
1915
1916
1920
1924
1922
1914
1924
1918
1919
1917
1917
1921
1940
1952
1960
1974
1968
1978
1971
1965
1946
1929
1932
1929
1938
1954
1958
1948
1948
1947
1943
1941
1928
1928
1936
1875
1828
1864
2264
3053
3801
4095
4095
3814
3284
2770
2259
2033
1902
1852
1857
1850
1809
1777
1797
1831
1813
1810
1813
1803
1809
1810
1806
1806
1820
1817
1827
1836
1831
1838
1856
1854
1861
1865
1875
1885
1896
1903
1910
1927
1952
1967
1984
2001
2015
2028
2068
2082
2114
2138
2144
2141
2131
2116
2100
2071
2051
2012
1987
1968
1941
1937
1930
1925
1917
1916
1907
1908
1905
1888
1901
1900
1898
1898
1898
1892
1900
1905
1900
1896
1894
1904
1892
1894
1896
1889
1903
1900
1901
1892
1894
1896
1899
1901
1907
1901
1898
1909
1897
1909
1910
1902
1912
1904
1902
1900
1912
1907
1913
1909
1914
1914
1915
1911
1914
1910
1917
1918
1919
1922
1914
1920
1922
1926
1937
1923
1919
1923
1916
1929
1917
1920
1927
1934
1975
1962
1970
1975
1978
1993
1974
1953
1944
1925
1939
1952
1969
1964
1967
1960
1953
1949
1953
1934
1958
1945
1882
1834
1893
2309
3081
3836
4095
4095
3854
3311
2762
2250
2050
1926
1875
1874
1858
1800
1805
1806
1817
1828
1821
1811
1817
1820
1819
1809
1835
1833
1833
1857
1853
1854
1860
1866
1855
1874
1886
1884
1897
1905
1910
1925
1936
1942
1958
1979
1991
2015
2032
2054
2075
2094
2127
2134
2136
2144
2133
2108
2096
2068
2043
2020
2003
1974
1959
1951
1938
1927
1926
1916
1904
1913
1910
1910
1914
1919
1907
1916
1917
1907
1912
1906
1902
1903
1895
1895
1899
1896
1901
1886
1887
1886
1886
1889
1883
1887
1881
1888
1892
1892
1899
1902
1887
1895
1898
1901
1900
1904
1900
1886
1900
1896
1901
1907
1902
1902
1896
1902
1903
1905
1907
1903
1900
1904
1909
1906
1913
1914
1917
1912
1910
1909
1909
1911
1911
1909
1907
1911
1916
1944
1946
1956
1963
1963
1969
1967
1940
1931
1923
1911
1931
1945
1955
1958
1947
1947
1935
1937
1924
1930
1953
1911
1848
1838
2020
2589
3432
4080
4095
4095
3636
3083
2484
2142
1988
1906
1884
1865
1837
1806
1808
1813
1833
1843
1831
1826
1818
1830
1831
1835
1839
1828
1838
1848
1842
1856
1862
1873
1877
1885
1888
1895
1904
1912
1932
1945
1961
1976
1991
2004
2027
2049
2075
2096
2117
2144
2154
2166
2169
2168
2152
2130
2108
2093
2052
2040
2021
1997
1988
1981
1957
1961
1965
1960
1960
1957
1952
1958
1963
1956
1950
1954
1949
1947
1954
1944
1951
1946
1949
1941
1939
1959
1957
1958
1955
1964
1944
1963
1967
1965
1973
1977
1970
1965
1969
1972
1968
1982
1986
1972
1987
1978
1978
1981
1978
1991
1997
2003
1988
1987
1985
1996
2012
2011
1999
1994
1992
2008
2016
2017
2017
2021
2034
2047
2051
2051
2060
2059
2071
2058
2050
2041
2022
2031
2030
2052
2065
2062
2046
2037
2032
2040
2024
2012
2017
1982
1935
1965
2302
3042
3799
4095
4095
3888
3332
2887
2393
2149
2030
1944
1940
1967
1923
1895
1901
1928
1928
1911
1915
1922
1914
1916
1921
1924
1922
1926
1939
1950
1963
1958
1961
1959
1961
1973
1985
1999
2009
2022
2017
2024
2055
2062
2080
2108
2104
2132
2142
2171
2186
2207
2236
2227
2224
2224
2189
2164
2134
2083
2068
2039
2035
2006
1999
1992
1971
1975
1978
1974
1957
1970
1949
1961
1970
1965
1975
1958
1965
1956
1960
1960
1969
1969
1965
1979
1960
1962
1963
1964
1965
1955
1949
1956
1958
1960
1965
1959
1959
1966
1970
1964
1962
1962
1958
1953
1955
1961
1970
1960
1960
1969
1978
1960
1960
1957
1974
2011
2020
2012
2010
2029
2029
2010
2000
1984
1968
1980
1999
2004
2016
2010
1993
1990
1994
1998
1984
1975
2002
1941
1895
1896
2130
2804
3618
4095
4095
4025
3423
2974
2440
2145
1998
1911
1898
1904
1877
1834
1841
1867
1885
1873
1878
1869
1862
1857
1869
1873
1885
1883
1874
1888
1884
1896
1913
1909
1926
1921
1931
1943
1958
1963
1974
1987
2000
2020
2039
2053
2079
2105
2120
2140
2154
2174
2191
2186
2180
2160
2128
2111
2078
2044
2030
1995
1982
1971
1966
1954
1946
1932
1930
1938
1938
1934
1932
1926
1932
1934
1928
1923
1932
1927
1930
1928
1925
1935
1935
1928
1935
1930
1928
1937
1931
1934
1941
1936
1932
1932
1937
1934
1945
1941
1928
1938
1949
1945
1952
1928
1933
1933
1941
1952
1947
1947
1944
1952
1964
1961
1960
1951
1956
1955
1959
1954
1958
1952
1956
1957
1950
1946
1935
1951
1959
1993
2003
1993
2003
2000
2004
2007
2001
1977
1966
1968
1980
1983
1997
2001
1988
1989
1987
1971
1976
1966
1991
1966
1900
1852
1999
2529
3372
4047
4095
4095
3665
3173
2617
2196
2024
1921
1889
1898
1891
1835
1829
1844
1857
1846
1842
1839
1848
1847
1846
1842
1853
1855
1871
1874
1876
1884
1880
1892
1904
1904
1916
1923
1918
1934
1947
1957
1983
1999
2007
2030
2057
2067
2100
2126
2148
2172
2195
2202
2206
2203
2181
2154
2137
2102
2075
2061
2039
2008
1997
1987
1971
1973
1966
1957
1956
1960
1942
1952
1955
1942
1949
1937
1952
1946
1945
1951
1945
1951
1955
1942
1920
1937
1939
1934
1952
1934
1936
1942
1948
1935
1938
1953
1938
1944
1938
1941
1941
1958
1941
1944
1947
1944
1955
1945
1949
1941
1953
1950
1950
1947
1946
1948
1956
1961
1962
1959
1966
1960
1957
1967
1962
1973
1964
1955
1953
1958
1960
1966
1962
1969
1984
2005
2020
2012
2003
2006
2022
2018
2019
2000
1983
1981
2007
2007
2006
2014
2003
2009
2006
1995
1986
1982
2021
1990
1917
1881
2018
2566
3395
4069
4095
4095
3707
3205
2630
2204
2059
1956
1925
1929
1901
1856
1859
1870
1887
1875
1868
1889
1868
1875
1876
1872
1880
1887
1887
1893
1892
1901
1913
1908
1916
1927
1931
1929
1947
1954
1963
1976
1990
2002
2017
2042
2054
2081
2106
2130
2139
2170
2192
2204
2203
2212
2187
2170
2143
2113
2088
2055
2045
2018
2009
2001
1987
1995
1984
1975
1972
1974
1974
1970
1971
1965
1965
1962
1955
1967
1961
1967
1967
1959
1959
1957
1950
1950
1956
1950
1951
1955
1952
1955
1958
1965
1954
1961
1958
1967
1958
1965
1969
1971
1974
1974
1963
1963
1972
1969
1973
1967
1966
1965
1964
1972
1971
1975
1983
1975
1978
1973
1972
1976
1969
1979
1975
1987
1979
1978
1989
1992
1986
1994
1975
1975
1976
1966
1972
1976
2000
2015
2016
2024
2024
2038
2039
2030
2008
1984
1989
1984
2001
2009
2014
2022
2005
2006
1986
1986
1961
1993
1988
1926
1869
1928
2303
3069
3853
4095
4095
3946
3385
2823
2301
2087
1957
1915
1909
1892
1854
1838
1844
1857
1866
1857
1849
1855
1848
1844
1849
1864
1850
1863
1872
1875
1878
1884
1884
1895
1903
1904
1908
1912
1931
1937
1944
1962
1967
1975
2010
2024
2040
2065
2081
2108
2128
2153
2164
2181
2177
2171
2156
2139
2103
2083
2058
2025
2018
1998
1984
1975
1962
1952
1952
1951
1952
1942
1942
1938
1941
1939
1939
1946
1929
1938
1937
1928
1931
1931
1931
1937
1935
1933
1934
1938
1935
1930
1925
1932
1933
1934
1940
1932
1933
1940
1940
1951
1946
1935
1946
1937
1942
1937
1938
1943
1949
1942
1939
1946
1941
1948
1939
1935
1939
1931
1940
1945
1938
1938
1951
1947
1940
1945
1955
1938
1950
1942
1939
1942
1934
1934
1928
1947
1968
1983
1977
1987
1980
1988
1990
1971
1958
1944
1939
1956
1969
1971
1981
1961
1963
1952
1958
1946
1947
1970
1913
1852
1868
2101
2731
3577
4095
4095
4095
3544
2975
2391
2106
1959
1904
1881
1853
1832
1808
1812
1819
1821
1819
1822
1821
1820
1818
1812
1823
1823
1829
1835
1843
1844
1849
1855
1865
1864
1877
1874
1881
1892
1896
1897
1907
1927
1942
1960
1981
1992
2013
2038
2055
2077
2104
2118
2129
2130
2125
2101
2098
2069
2043
2021
2000
1975
1953
1946
1941
1932
1932
1917
1907
1912
1908
1917
1914
1917
1913
1907
1917
1907
1907
1903
1906
1897
1905
1900
1901
1898
1902
1898
1899
1903
1903
1900
1907
1913
1902
1906
1906
1907
1910
1915
1906
1904
1919
1908
1922
1920
1919
1919
1923
1922
1917
1925
1920
1918
1925
1923
1924
1924
1929
1916
1934
1932
1925
1934
1936
1938
1924
1931
1932
1928
1928
1928
1933
1944
1971
1970
1982
1979
1989
1982
1982
1964
1946
1937
1947
1958
1965
1974
1971
1965
1964
1957
1953
1940
1948
1955
1899
1858
1890
2199
2908
3684
4095
4095
3996
3406
2850
2301
2090
1953
1912
1890
1877
1841
1825
1835
1845
1846
1847
1850
1849
1843
1833
1837
1838
1845
1853
1850
1861
1872
1872
1887
1890
1895
1903
1902
1911
1903
1932
1937
1952
1965
1968
1993
2016
2031
2045
2065
2090
2109
2135
2155
2157
2156
2154
2136
2108
2101
2073
2045
2024
2006
1990
1982
1974
1961
1954
1952
1956
1955
1956
1949
1957
1946
1953
1953
1945
1948
1949
1943
1953
1951
1946
1954
1941
1954
1958
1952
1953
1955
1962
1966
1976
1970
1961
1970
1971
1976
1979
1975
1980
1968
1982
1982
1990
1992
1986
1987
1993
2000
1995
1993
1996
1994
2002
2009
1999
2017
2012
2011
2009
1999
2007
2011
2023
2015
2017
2018
2021
2036
2040
2051
2066
2065
2072
2072
2056
2043
2026
2024
2030
2045
2057
2066
2058
2035
2035
2032
2039
2027
2021
2037
1974
1934
2009
2391
3174
3867
4095
4095
3777
3300
2822
2352
2147
2029
1970
1976
1965
1919
1893
1917
1947
1932
1924
1939
1935
1923
1930
1928
1942
1948
1951
1954
1956
1967
1969
1969
1982
1989
1992
2011
2007
2018
2033
2046
2049
2056
2074
2092
2113
2137
2131
2155
2180
2187
2213
2232
2232
2225
2216
2198
2175
2156
2129
2095
2073
2053
2035
2035
2018
2011
1995
1996
1991
1993
1993
1991
1986
1984
1985
1988
1996
1988
1984
1983
1981
1986
1984
1982
1979
1981
1978
1981
1980
1977
1971
1975
1969
1979
1975
1975
1971
1962
1974
1974
1967
1981
1974
1973
1981
1970
1978
1985
1986
1984
1975
1983
1976
1976
1972
1970
1983
2000
2015
2016
2025
2031
2032
2037
2019
2009
1989
1984
1982
1999
2000
2010
2011
2008
2004
2001
1996
1972
1982
1998
1934
1878
1943
2316
3084
3812
4095
4095
3795
3294
2808
2321
2094
1966
1909
1919
1922
1877
1851
1867
1886
1892
1879
1889
1890
1885
1874
1887
1892
1888
1903
1904
1901
1908
1911
1911
1934
1943
1943
1954
1960
1970
1982
1991
2001
2013
2030
2056
2068
2086
2112
2136
2145
2172
2183
2191
2206
2186
2175
2147
2121
2095
2055
2047
2020
2000
1992
1980
1972
1969
1967
1965
1960
1952
1954
1962
1957
1957
1958
1958
1949
1951
1950
1949
1955
1953
1954
1953
1958
1954
1950
1961
1953
1945
1954
1952
1946
1951
1949
1954
1963
1958
1961
1961
1958
1959
1956
1960
1959
1967
1964
1969
1967
1967
1971
1978
1984
1970
1977
1970
1963
1966
1963
1967
1977
2000
2011
2013
2014
2016
2021
2018
1997
1986
1983
1978
1987
1998
1991
2009
1998
1989
1985
1979
1976
1961
1991
1947
1884
1861
2057
2656
3480
4095
4095
4095
3584
3095
2526
2171
2002
1918
1887
1895
1874
1834
1833
1857
1865
1853
1851
1850
1844
1839
1845
1845
1859
1861
1859
1867
1873
1878
1882
1893
1905
1911
1913
1922
1923
1937
1955
1961
1977
1984
2010
2019
2044
2066
2079
2111
2141
2164
2173
2176
2174
2155
2150
2128
2087
2070
2042
2020
2006
1994
1978
1965
1957
1949
1952
1947
1939
1927
1927
1937
1943
1934
1939
1924
1932
1921
1926
1931
1934
1930
1926
1931
1926
1928
1937
1940
1916
1927
1922
1925
1925
1934
1933
1921
1935
1931
1940
1940
1944
1932
1941
1937
1937
1934
1940
1948
1945
1941
1943
1938
1948
1946
1949
1949
1938
1945
1946
1959
1953
1943
1956
1944
1950
1942
1945
1940
1960
1982
1992
1997
1996
1999
2000
1999
1988
1967
1958
1962
1960
1977
1987
1981
1976
1974
1981
1965
1958
1947
1975
1931
1865
1863
2090
2734
3563
4095
4095
4095
3527
3027
2443
2115
1975
1891
1879
1872
1835
1805
1802
1836
1849
1821
1836
1819
1813
1821
1817
1835
1839
1840
1845
1847
1848
1848
1860
1866
1878
1881
1892
1886
1900
1914
1933
1942
1958
1965
1976
1994
2020
2039
2067
2082
2108
2127
2150
2162
2153
2152
2119
2100
2070
2047
2019
1992
1976
1956
1952
1938
1929
1922
1929
1924
1919
1916
1910
1902
1905
1903
1904
1911
1917
1905
1910
1911
1909
1904
1905
1901
1892
1894
1904
1897
1902
1911
1897
1904
1905
1901
1913
1899
1907
1901
1911
1916
1911
1916
1910
1922
1910
1915
1911
1914
1922
1911
1920
1913
1918
1919
1921
1918
1916
1923
1925
1916
1920
1923
1921
1940
1941
1921
1933
1926
1922
1928
1928
1912
1935
1949
1970
1971
1972
1985
1990
1990
1981
1966
1941
1933
1937
1957
1961
1974
1964
1954
1962
1962
1955
1933
1957
1951
1893
1841
1906
2240
2993
3767
4095
4095
3935
3366
2798
2282
2060
1944
1896
1882
1861
1824
1809
1814
1836
1834
1833
1831
1831
1818
1831
1830
1834
1853
1848
1857
1853
1862
1868
1877
1889
1890
1890
1893
1900
1898
1922
1928
1934
1958
1972
1987
2002
2029
2035
2061
2089
2112
2132
2141
2143
2136
2130
2109
2087
2057
2034
2010
1989
1973
1963
1948
1938
1934
1926
1922
1917
1916
1913
1914
1913
1913
1911
1910
1913
1917
1907
1922
1904
1904
1903
1898
1901
1895
1912
1889
1907
1913
1909
1913
1914
1911
1904
1914
1910
1912
1913
1924
1908
1917
1916
1920
1916
1922
1920
1914
1932
1927
1927
1936
1924
1928
1936
1929
1930
1937
1933
1937
1942
1948
1949
1941
1947
1942
1948
1953
1941
1943
1936
1936
1934
1942
1955
1975
1989
2001
1988
1999
1998
1997
1996
1978
1971
1962
1977
1990
1997
1997
1995
1984
1987
1991
1974
1960
1979
1957
1895
1871
2011
2501
3321
4007
4095
4095
3748
3223
2622
2210
2041
1943
1916
1913
1889
1857
1844
1864
1871
1863
1877
1875
1875
1867
1870
1876
1881
1878
1884
1893
1891
1903
1909
1907
1920
1927
1931
1947
1956
1954
1966
1984
1999
2010
2022
2036
2053
2094
2107
2129
2147
2163
2179
2203
2201
2189
2171
2153
2126
2093
2082
2058
2027
2024
1991
1985
1979
1956
1964
1966
1967
1965
1963
1961
1950
1960
1962
1950
1959
1954
1945
1945
1940
1949
1935
1947
1951
1934
1944
1958
1946
1952
1949
1943
1946
1950
1959
1955
1961
1954
1952
1950
1949
1947
1941
1958
1955
1958
1970
1958
1953
1963
1960
1969
1972
1976
1965
1971
1970
1972
1974
1967
1964
1970
1982
1973
1979
1970
1981
2002
2016
2017
2017
2036
2035
2035
2012
1997
1971
1979
1990
1998
2013
2009
2013
2003
1999
1997
1979
1970
1996
1967
1906
1880
2079
2697
3488
4095
4095
4084
3503
3054
2521
2183
2034
1937
1914
1918
1890
1848
1845
1866
1871
1863
1863
1875
1874
1872
1876
1879
1882
1886
1880
1891
1901
1903
1916
1922
1929
1931
1944
1948
1962
1977
1980
1992
2007
2022
2039
2061
2066
2090
2110
2128
2163
2178
2190
2192
2174
2169
2154
2129
2110
2078
2058
2024
2007
1989
1979
1968
1960
1957
1949
1950
1947
1947
1939
1934
1936
1942
1941
1946
1941
1942
1930
1941
1939
1939
1948
1933
1948
1940
1938
1933
1943
1945
1946
1944
1933
1934
1940
1936
1938
1944
1937
1938
1948
1949
1948
1945
1945
1951
1942
1947
1946
1941
1951
1947
1949
1953
1950
1954
1958
1955
1952
1947
1948
1939
1951
1961
1984
1988
1999
1992
2000
2007
1990
1988
1972
1965
1953
1964
1982
1994
2006
1994
1980
1977
1978
1962
1956
1980
1939
1872
1865
2062
2708
3535
4095
4095
4095
3545
3065
2502
2157
2003
1912
1897
1899
1876
1833
1835
1859
1866
1858
1850
1858
1853
1853
1858
1869
1860
1878
1880
1885
1891
1893
1900
1906
1919
1919
1927
1934
1940
1963
1970
1983
1992
1997
2016
2039
2066
2088
2107
2135
2156
2175
2193
2191
2185
2172
2144
2124
2088
2073
2051
2036
2011
2001
1985
1975
1970
1970
1958
1960
1948
1942
1944
1942
1960
1962
1960
1959
1950
1944
1951
1946
1948
1956
1947
1952
1966
1958
1957
1953
1943
1943
1948
1959
1948
1967
1969
1964
1959
1966
1961
1961
1962
1961
1956
1962
1964
1963
1956
1961
1960
1973
1977
1965
1973
1967
1964
1967
1973
1968
1980
1982
1969
1978
1975
1979
1978
1978
1967
1967
1968
1974
1975
1973
1970
1976
1971
1971
1976
2002
2015
2012
2024
2015
2032
2032
2015
2002
1977
1974
1986
2002
2004
2009
2004
