Tong,Dang Khoa,1489,10/14/2019,3:38:46 PM,10/14/2019,4:04:46 PM
2006
2024
2011
1895
2079
2055
2006
2160
1924
1890
2008
1990
2239
2168
2040
1995
2074
2208
1995
2048
2213
2027
1979
1919
2016
2158
2055
2027
2079
2027
1961
1924
1971
2011
2174
2118
1990
2087
2076
2058
2090
2087
2100
1974
2027
2042
1950
2006
2100
2129
1964
1885
2132
2074
1998
2063
2166
2229
1992
1966
2074
2037
2108
1940
1956
2079
1979
1830
1914
2181
2158
2066
2216
2231
2174
1945
1927
2129
2027
2024
2087
2000
2055
1950
2066
2155
2024
2074
1971
1911
1974
1890
2027
2100
2074
2037
2084
2221
2087
2032
2205
2208
2055
1838
2013
2134
2000
2003
2066
2116
2029
1898
1998
2013
2019
1958
2013
2205
2132
2079
2063
1995
2168
2132
2066
2050
1961
1895
1927
2121
2092
1914
1998
1992
2040
2124
2168
2213
2066
2019
2118
2153
2181
1998
1966
1932
1924
2024
1911
2034
2037
1887
2024
1945
2082
2134
2053
2174
2097
2074
2090
2126
2213
1982
2000
2100
2029
2061
2097
2092
1979
1898
1992
1950
2092
2111
1969
2066
2079
2108
2174
2092
2063
2084
2158
1992
1956
2095
1950
1903
1974
1953
2034
2032
2103
2045
2011
2113
2048
2003
1964
2037
2176
2006
2027
2108
2055
2024
2008
2118
2184
2118
2163
2174
2048
1887
1966
1985
1843
2008
2189
2019
1919
1948
2076
2118
2095
2074
2027
2053
2024
2076
2218
2108
2087
2058
2061
2042
2024
2074
1901
1937
2155
2034
2055
2090
2071
2158
2126
2045
2071
2076
1979
1893
2053
2108
2011
1979
2087
2121
1929
1882
2103
2097
2053
2029
2055
2066
1911
1916
2024
2124
2155
2006
2124
2137
2037
2118
2032
2084
2163
2019
2066
2050
2029
1956
1929
2029
2016
2160
2200
1911
1851
1932
2063
2090
2058
2187
2192
2092
1979
1969
2126
2019
2006
2034
2037
2105
1945
1966
2092
2155
2168
1866
1895
2032
1974
2076
2105
2058
2061
2074
2134
2171
2237
2100
2048
2053
1966
2079
2069
1948
1964
1922
2048
2113
2045
2037
2003
2027
2029
2058
2150
2137
2063
1874
1966
2092
1945
2006
2087
1990
2024
2132
2229
2090
2003
2032
2013
2113
2045
2024
2171
1995
1990
1992
1945
2134
2142
2048
2087
2108
2108
1906
1853
2100
2174
1998
2006
2132
2048
1935
1914
1958
2066
2019
2108
2192
2024
2011
2055
2042
2048
2034
2181
2074
1950
2029
2027
2142
2053
2008
2210
1992
2021
2116
1998
2087
1974
1943
2082
2034
2087
2082
2061
2000
1948
2034
2029
1985
1966
2000
2163
2142
2053
2029
2076
2013
1982
2132
2105
2079
2174
2074
2166
2126
1937
1893
1906
2027
2069
2066
2071
1935
2042
2132
2090
2134
2113
2118
2069
1874
1827
1822
1864
2032
2239
2184
2063
2095
2029
1958
2021
2108
2087
1798
1893
2195
2195
2179
2134
2176
2166
2008
2197
2121
1969
2100
1937
1830
1929
2074
2202
2108
2231
2153
1911
1950
1990
2121
2090
1992
2084
1943
1880
1990
2142
2063
1908
2011
1971
1911
2037
2034
2063
2066
2174
2189
2121
2158
2076
2124
2063
1882
2118
2111
2008
2029
1916
2021
2116
2021
2113
2126
2011
1908
1974
2061
2042
2124
2145
2090
1945
1840
2097
2042
1998
2176
2137
2134
1940
1840
2166
2145
2016
2006
2042
2040
1943
1953
1979
2045
2105
2037
2223
2231
2100
2090
2008
2011
2027
2042
2074
1979
2040
1937
1935
2079
2042
2155
2160
2040
2097
1985
2013
2055
2008
2074
2055
2042
2055
2037
2105
2053
2021
1992
2029
2003
1908
2045
2076
2029
1998
1890
2142
2181
2032
2079
2061
2050
2013
1995
2202
2208
2061
2021
2145
2124
1977
2013
2024
2045
2076
1932
2029
1995
1911
1958
1982
2126
2069
1998
2247
2229
2061
2021
2118
2111
1990
2084
2160
2024
1872
1845
2153
2171
2019
2139
2116
1961
1961
2000
2016
2016
2027
1950
1971
2045
2113
2105
2040
2108
2095
1964
2069
2045
2024
2103
2129
2171
2006
1958
2129
1945
1943
1998
2045
2058
1793
1956
2105
1916
2000
2024
2195
2244
2029
2048
2034
1985
2050
2061
2171
2108
1969
2011
2181
2210
2042
2045
2174
2076
2027
2142
2223
1950
1840
1969
2048
2097
1887
1958
2226
1950
2016
2166
2090
2187
2034
1956
2142
2139
2097
1979
1971
2013
2003
2029
2129
2200
2105
1979
1966
1940
2008
2045
2029
1911
1958
2158
2063
1937
1940
2021
2226
2040
1971
2126
1992
1998
1982
1985
2168
2027
1992
2032
2111
2197
1922
1964
2260
2200
2129
2055
1982
1901
1985
2129
2092
1964
1866
1929
2029
2019
2132
2158
2071
1887
2003
2195
2013
2045
2105
2021
2181
2021
1940
2032
1985
2079
2048
2074
2195
1911
1853
2032
2118
2153
2074
2176
2189
1932
1998
2084
2116
2024
1945
2090
2100
2016
2008
2003
2095
2092
2037
2008
2063
2048
2082
2153
2134
2153
1969
1924
2184
2008
1979
2048
1856
1877
1940
2029
2176
1998
1966
2082
2053
1995
1990
2055
2061
2113
2242
2134
2150
2121
2050
2153
2129
2063
1961
1903
2006
1990
2069
2032
2000
1929
1814
2003
2124
2105
2100
2048
2147
2048
2019
2132
2053
1992
1974
2024
2069
1992
2124
2006
1969
2208
2147
2113
2126
2061
2050
1953
2042
2118
2155
2155
2084
2103
1964
1906
1940
1809
2034
2142
2082
2095
2050
2168
2100
1985
2090
2000
1964
1956
2019
2024
1937
2045
1985
1924
2145
2181
2163
2134
2045
2011
2000
2040
2090
2079
2113
2000
1914
2003
2126
2082
1982
1985
1908
1935
2037
2055
2226
2048
1927
2158
2166
2132
2166
2139
2053
1987
2076
1992
1982
1950
1856
2134
2187
2003
2076
1974
1932
1992
1998
2003
2076
2137
1992
2113
2208
1966
2003
1992
2082
2187
2013
2079
2108
1982
2095
2160
2147
1937
1953
2113
1953
2016
2121
2055
2042
1887
1995
2108
2037
2058
2042
1958
1961
1961
1974
2090
2221
2155
2116
2113
2111
1995
1922
2105
2166
2019
2103
2139
2040
1937
1956
2121
2116
1998
2008
2076
2166
1985
1966
2058
1961
2006
1953
1995
2252
2019
1856
2048
2095
2042
2090
2187
2179
2032
1945
2053
2097
1908
2021
2142
1995
1914
1964
2074
2016
1966
2111
2116
2158
2108
2019
2145
2079
2011
2011
1987
2155
1974
1869
2116
2097
2076
2076
2121
2205
1901
1901
2092
2042
1961
2021
2160
2066
1977
2087
2108
2090
1969
2024
2126
2045
1979
2006
2124
2053
1953
2108
2097
2132
2019
1822
2000
2000
1950
2097
2137
2216
2019
1985
2163
2066
2124
2105
2006
2108
1995
2037
2087
1995
2029
1995
2053
2126
1924
1935
2050
2042
2032
2116
2142
2205
2092
1814
1982
2118
1958
2019
2100
2147
2006
1922
2061
2063
2118
2118
1956
2053
2069
2029
2079
2048
2040
2037
2053
2066
2008
2053
1929
1950
2045
1966
2134
2231
2090
2084
2079
2118
2063
2006
2087
2116
2061
2011
2050
2069
1974
2061
2048
2000
2058
1985
1977
1974
1985
2103
2061
2069
2090
2129
2087
1995
2032
1943
1903
2008
2000
2032
1974
2095
2208
2087
2132
2118
2069
2079
1979
2084
2079
1971
1874
1914
2113
2113
2021
1966
1958
2063
2021
2100
2132
2050
2027
1974
2103
2147
1990
2118
2048
1937
2040
2074
2210
2166
2055
2168
2087
1956
1882
1969
2132
2103
2019
2016
2092
2082
1961
2048
2011
1956
1948
1987
2095
2013
2066
2187
2042
2066
2082
2111
2042
1906
2000
2061
2021
2066
2163
2307
2192
2076
2034
1877
1937
2058
1985
1992
2092
2076
1982
2024
2066
2092
2034
1995
2132
2097
2021
2147
2006
2000
2145
2137
2116
2008
2016
2008
1832
1919
2019
2195
2187
2071
2202
2053
2021
2137
1945
2066
2095
1927
1940
1958
2013
2008
1906
1982
2105
2118
2058
2090
2121
2053
2061
2145
2137
2071
1964
1979
1998
2132
2202
2090
2116
1998
1877
2006
2055
2134
2076
2105
2100
1908
1969
2037
2063
2066
1971
2097
2042
1914
1987
2048
2061
2050
2097
2155
2069
2040
2011
1950
1982
2105
2118
2150
2192
2029
1956
2019
1998
2058
2021
2126
2192
1845
1911
2226
2100
2063
2037
2097
2108
1838
1929
2069
1916
1990
2095
2160
2121
2053
2058
1998
2045
2150
2150
2155
2037
1901
1880
1990
2019
1974
2040
2176
2192
1953
1929
2210
2118
2021
2074
2174
2189
1969
2006
2121
2037
2097
2027
2082
2163
1995
2011
1987
1948
2000
1895
2008
2100
2069
2027
2024
2118
1987
1966
2242
2184
1906
1827
1974
1974
1940
2045
2118
2137
2037
2053
2258
2255
2218
2124
2053
2118
1961
1956
2074
1901
1971
1974
1898
2016
1987
2008
2016
1908
1914
1958
2160
2111
2008
2187
2100
2006
2145
2192
2189
2095
2090
1948
1937
2129
2090
2066
2174
2231
2087
1914
2037
2095
2071
1990
1979
2097
1908
1769
2079
2174
2024
1998
2189
2084
1801
1924
1982
2034
2108
1995
2231
2184
1958
2066
2053
1992
2053
2097
2071
2045
2087
1998
2027
2090
2082
2116
2016
2040
2160
2029
2029
2111
2200
2132
1969
2050
2095
1982
1992
1872
1806
1977
1916
1801
2024
2260
2365
2315
2234
1924
1546
1764
2084
1906
2079
2357
1943
1365
1638
2402
2441
2155
2683
2872
2205
1859
1880
2168
2402
2111
1691
1179
982
1467
2095
2118
1798
1953
1701
1586
3352
4006
2709
2305
2441
2223
2218
2090
1607
1638
2069
1575
1305
1906
1496
1381
2263
2546
2767
2347
1622
2076
2662
2082
1633
1945
1672
2069
2861
2011
1635
1515
1313
2310
2475
2242
2239
1236
1331
2643
2772
2252
2483
2565
2181
2137
2321
2250
1827
1486
1688
2079
2171
1859
1719
2084
2216
2192
2292
1943
1788
1725
1517
1622
1964
2145
1956
2040
2321
2142
2189
2153
1845
1987
2210
2147
1943
1901
2153
2176
2124
1998
1992
2053
1796
1919
2132
2132
2221
2079
1990
2181
2370
2105
1937
2063
1956
2032
1992
1848
2090
2037
2108
2208
2103
2053
1851
1906
1966
1848
2166
2336
2347
2132
1835
2045
2124
1916
1893
1803
1677
1496
1803
2286
2200
2323
2504
2181
2087
2244
2423
2258
1898
1895
2016
1838
1683
1827
2034
2192
2111
1872
2040
2181
2255
2286
2058
2336
2263
1683
2132
2239
1824
2000
2082
1987
2045
2040
1809
1764
2029
2027
2213
2103
1614
1809
2016
1966
2507
2536
1916
1979
2176
1835
2000
2297
2027
2034
2126
2071
2074
1929
2108
2071
1971
2153
2029
2050
1958
1932
2426
2092
1659
1916
2210
2307
1937
1803
2134
2100
1877
1966
2410
2405
1856
1698
2061
2265
2048
1943
2181
2092
1977
2074
2079
2029
1956
1882
1670
1604
1961
2187
2347
2273
2116
2226
2132
2116
2208
1958
2074
2166
1840
1796
2045
2071
1940
2019
2273
2328
2174
1895
1927
2090
2024
2029
1964
1882
2087
2137
1961
1890
2239
2331
1953
1998
2129
1864
1730
1927
2195
2145
2087
2053
1937
1924
2158
2363
2158
1966
2040
1990
1793
1835
2323
2470
2195
2208
2153
1877
1845
1824
1964
1966
1756
2040
2231
2055
2105
2210
2255
2124
2042
2087
2069
2050
1911
1861
1998
2032
2003
1937
2008
2121
2087
1971
1924
2066
2111
1932
2147
2318
2229
2163
2019
1856
1859
2063
2061
1979
2079
1979
2058
2111
2032
2113
1987
2087
2357
2226
2090
2003
1885
1712
1869
2105
2024
2053
2050
1982
2179
2092
1885
2006
2076
2129
2265
2187
2069
2118
2092
1971
2074
1961
1929
2179
2055
1927
1992
1927
1908
1906
2176
2418
2118
1853
1754
1843
1982
1790
2016
2252
2168
2255
2213
2076
2034
2100
2076
1964
2034
2076
2074
1853
1866
2310
2195
2021
2197
2174
1977
1788
2063
2202
1958
2061
2134
1979
1961
2071
2226
2124
2021
2134
2092
1958
1940
2000
1985
1977
2082
1971
2021
2171
2076
2092
2013
1906
1964
1911
2058
2163
2011
1969
2045
2034
2153
2247
2016
1948
2105
2029
2019
2019
2084
2210
2092
2079
2158
2103
2118
1943
1887
1971
1898
2040
2066
1969
2118
2139
2097
2087
2158
2108
1945
1948
2074
2260
2192
1935
1987
2003
1937
1977
2150
2040
1630
1738
2139
2139
2179
2226
2187
1971
1835
2150
2407
2242
1990
1948
1919
1830
2066
2271
2100
1872
1880
2158
2174
1874
1956
2006
1987
2000
2074
2349
2166
1809
2000
2265
2302
2034
1908
2034
2011
1924
1929
2027
2021
1935
1956
2079
2247
2108
1956
2147
2239
2045
1793
1924
2223
2150
2181
2126
2016
1992
1793
2027
2339
2126
2076
2029
2019
2095
1971
1880
2024
2155
2045
2076
2239
1882
1733
1966
2111
2271
2166
2016
2179
2037
1953
2147
2121
1969
2050
2108
1958
2013
2055
1924
1948
1922
1995
2097
2006
1987
2034
2066
1956
1832
2024
2137
2168
2097
2019
2095
2061
2071
2082
2084
2268
2132
2050
2145
2045
1977
2027
2074
2090
2024
1961
1958
2045
2013
2129
2336
2061
1843
2069
2116
2063
1974
1979
2111
2071
1987
2045
2092
1985
1856
1898
2027
2250
2163
1971
2134
2150
2069
2100
1940
2034
2074
1924
1945
1922
1893
1916
2032
2226
2124
2087
2142
2142
2079
2058
2142
2074
1956
1995
2205
2297
1966
1898
2050
2079
2137
2132
2040
1945
1937
1961
1908
2058
2108
1998
1943
1953
2187
2247
1966
2034
2147
2084
1911
1919
2092
1982
2082
2339
2247
2108
1811
1827
2050
1935
1990
2071
1880
1853
2055
2216
2171
2176
2082
2040
2032
2006
2134
1966
1887
2179
2103
2137
2142
1887
1987
2111
2061
2011
1919
2055
1992
1924
2126
2250
2276
2069
1992
2176
2021
1979
1998
1948
2097
2210
2171
2021
2071
2155
1861
1845
2055
2100
1932
1848
1929
2027
2150
2132
2158
2221
1935
1992
2053
1893
2103
2160
2008
1977
1940
2058
2126
2163
2113
2032
2066
1992
1901
2024
2071
2168
2189
2216
2252
2134
2163
2079
1803
1803
1961
1979
1843
2053
2205
2095
1961
1824
2053
2197
2048
2145
2000
1824
1769
1806
2040
2145
2247
2263
2034
2147
2158
2032
2124
2150
2121
2045
2024
2084
1940
1974
2021
2016
2003
1974
2027
1992
2034
2053
1974
2181
2129
2034
2184
2155
2092
2013
2008
2024
1885
2019
2097
2116
2040
1856
1990
2082
2048
2174
2195
2153
1956
1987
2132
2118
2174
2061
1882
1922
1977
1922
1874
2042
2008
1948
2013
2024
2192
2181
2074
2179
2053
2082
2142
2105
2210
2079
2016
2061
1985
2087
2003
1948
1982
1864
1866
1966
2111
2200
2034
1977
2000
2040
2048
2137
2294
2192
1985
1937
1956
1998
2063
2223
2097
1882
2006
2121
2042
1969
1990
2158
2108
2074
2087
2103
2155
1895
1929
2187
2095
2150
2053
2003
2084
1985
1932
1966
2124
2155
1948
2079
2105
1958
2034
2061
2061
2006
1838
2069
2160
1998
2050
2153
2045
2037
2058
1995
2079
1998
1956
2142
1990
2011
2021
1948
2111
2105
2195
2179
1937
2066
2003
2013
2189
2008
1979
2066
2027
2040
2061
2084
1895
1840
1982
2090
2176
2160
2171
2118
1995
2097
2092
2045
2027
1961
1974
1922
1882
1985
2071
2142
2113
2181
2118
1995
2058
1964
2006
2142
2108
2147
2000
2066
2132
1943
2124
2187
2003
1950
1822
1995
2095
2045
2079
2048
2103
2042
1979
2126
2069
1995
1958
1969
2029
2048
2013
2003
2153
2150
1982
2087
2153
2174
2116
2069
2118
1953
1971
2013
1814
1935
2024
1974
2048
2155
2184
2108
2118
2095
2079
2229
2050
1945
1953
1869
1977
1990
1958
2118
2231
2129
1914
2013
2145
2071
2050
2132
2229
2013
1785
1922
1864
1969
2179
2082
2111
2061
1982
2116
2061
2040
2082
2153
2084
1940
2019
2048
1992
2000
2034
2187
2195
2042
1890
2063
2147
1914
2079
2250
2158
2153
1977
2045
2048
1859
2126
2192
1990
1971
1759
1769
1940
2024
2137
2090
2069
2000
1914
2090
2105
2139
2160
2181
2216
2079
2053
2095
1982
1922
2079
2229
2032
1924
1990
1998
1890
1901
2223
2234
2092
2189
1979
1937
1924
1843
2134
2126
2045
2121
1950
2037
2045
2048
2239
2181
2158
1979
1819
2121
2063
1948
2139
2184
2103
1940
1838
2034
2097
1982
2006
2142
2076
2013
1945
2006
2200
2105
2032
2034
1990
2084
1979
2050
2111
2029
2132
2079
2079
2090
2013
2195
2105
2016
2103
2079
2006
1880
1932
2024
1866
1887
1914
2000
2168
2058
2021
2139
2069
2055
2116
2145
2032
2029
2045
2032
2118
2037
2124
2265
2032
2008
2021
1990
1937
1903
2155
2179
2095
1985
1801
2016
2066
2095
2195
2053
2095
2066
1885
2011
2108
2071
2013
2053
2181
2216
2079
1990
2050
2029
1953
2058
2100
2084
1898
1880
2013
1887
2066
2302
2184
2145
1974
2000
2032
1887
2029
2008
1979
2063
1943
2171
2103
1864
2090
2097
2058
2168
2087
2050
2000
2000
2055
2116
2087
1937
1985
2132
2090
2076
2129
2197
2066
1935
1969
2042
2087
2006
1940
1929
1969
2027
1950
2155
2184
2105
2273
2129
2061
2113
1856
1948
2045
2011
2105
2100
2042
1890
1927
2195
2108
2006
1987
2053
2037
1853
1945
2095
2069
2095
2019
1987
2105
2139
2011
2061
2053
1893
2003
2076
2066
2305
2124
2011
2137
2008
2019
2055
2034
2076
2019
2121
2076
1969
1958
1977
2079
2100
2095
2055
2011
2145
1969
1885
2079
2048
2082
2126
2008
2084
1992
1824
1945
2179
2205
2097
2027
1985
2003
1971
1982
2145
2079
2097
2181
2037
2097
2132
1990
2024
1961
2019
2158
2045
1903
1932
2082
2132
2050
2118
2176
2124
1895
1898
2171
2108
1932
1971
2027
2045
1882
1869
2016
2076
2016
2042
2210
2121
2027
2139
2139
2234
2105
1956
2097
2111
2008
1956
2027
2058
1887
1985
2179
2189
1990
1890
2011
1990
2042
2150
2063
2063
1979
2021
2069
1974
2090
2126
2063
2040
2008
2150
2032
1966
2050
1974
1992
2008
1985
2027
2055
2168
2103
2042
2079
2061
2132
2124
2105
2095
1908
1911
1914
1998
2082
1966
2071
2050
1906
2019
2032
2048
2040
2139
2294
2302
2158
1979
2058
2121
2021
2126
2050
1895
1840
1806
1974
2079
1992
2003
2061
2155
2116
2145
2095
1966
2045
1966
1990
2197
2003
1958
2111
2087
2061
2061
2116
2192
2105
2021
2016
2048
1901
1911
2074
2095
2011
1861
2016
2252
2082
2071
2063
1982
2000
1948
1961
2084
2103
2006
1969
2237
2208
1979
1979
1953
2019
2097
2095
2192
2066
1940
2008
2037
2019
2139
2271
2139
1940
1966
2048
1969
1864
2084
2234
2097
2003
1998
2037
2021
1922
1929
1990
2242
2216
1919
2066
2129
1908
1887
2034
2321
2155
1872
2069
2121
1998
1995
2090
2208
2124
2074
1982
2011
2032
1893
2040
2066
2019
2095
1966
2074
2040
1887
1958
2055
2118
1953
2032
2200
1956
2040
2218
2263
2134
1898
2061
2095
1911
1990
1971
1866
1848
1982
2092
2095
2142
2166
2155
2097
1956
2069
2103
2055
2050
1969
1990
2008
2042
2066
2040
2313
2242
2021
2134
2192
2145
1901
1869
2011
1937
2032
1908
1924
2129
2037
2097
2213
2155
2108
2006
1987
1945
1990
2079
1998
1995
1964
1885
2163
2181
2024
2103
2074
1950
1932
1998
2137
2213
2163
2050
2032
2006
2069
2061
1961
2029
2013
1935
1987
2000
2195
2197
2158
2179
1985
2000
2045
1966
2037
1971
2097
2139
1958
2000
2069
2071
2116
2124
2158
2108
1995
1706
1667
1940
2158
2216
2090
2153
2171
1908
2055
2116
2111
2087
1864
2034
2050
1887
2053
2006
1979
2090
2258
2310
2074
1987
1950
1937
1982
1964
2210
2116
1924
1969
1874
2000
2150
2124
2218
2111
2037
2092
2124
2053
2016
2103
2032
1990
2021
1969
2134
2024
1932
2092
2084
2063
1887
1817
2076
2155
2163
2100
2160
2195
2011
1990
2006
2003
1974
1803
1903
2037
1985
2013
2200
2239
2205
2189
2105
1985
1940
1979
2153
2134
2008
1969
1990
2111
2118
2006
2202
2147
1893
1977
2111
2158
1966
1832
2074
2095
2006
1916
1992
2066
1864
2013
2242
2097
1998
1974
2137
2166
2082
2058
2037
2076
2011
2071
2229
2048
1966
1929
1998
2076
1969
2032
2084
2066
2147
2097
2166
2050
1943
2019
1971
2058
1953
1793
1950
1977
2050
2045
2197
2423
2155
2082
2216
2100
2040
1956
1990
2058
1985
1895
1974
1992
1916
2084
2111
1979
2150
2097
2079
2121
2008
2053
2079
2129
2019
1866
2097
2003
1882
1992
1995
2153
2092
1880
2074
2108
1977
2066
2234
2202
2147
2087
1977
2027
2124
2116
2158
1998
1950
2006
2021
2092
2003
2021
2132
2000
1974
1898
1903
1943
1835
2021
2289
2328
2221
2013
2134
2108
1961
2061
2000
1958
1943
1843
2053
2079
1987
2097
2082
2074
2139
2087
2092
2008
1895
1953
2139
2095
1948
1969
2000
2037
2082
2184
2289
2116
2008
1964
2071
2076
1943
2058
1998
1982
2200
2090
2090
2082
1985
2079
2032
1995
2045
1966
1998
2003
2016
2058
2124
2113
2045
2129
2095
1929
1895
1882
2132
2187
2074
2168
2118
1971
1950
2011
1950
1940
2234
2200
2160
2116
1943
2048
1932
1887
2168
1998
1859
1869
1969
2097
2066
2247
2260
2055
2121
2061
2090
2037
1985
2247
2153
1943
2032
2082
2082
1956
1950
1985
2019
1940
1877
2158
2118
1859
2021
2055
2029
2055
2050
2040
2008
2040
2055
2155
2242
2071
2087
2061
1982
2055
2061
2006
1974
2011
2097
2063
2163
2134
1953
1919
1964
2045
2045
2058
2069
1992
2111
2040
2053
2153
2034
2118
2108
1943
1990
2040
2145
2019
2000
2113
1927
1961
2116
2113
2184
2034
1895
1924
2050
2139
2121
2103
2040
1948
1958
1922
2079
2147
2040
2092
2076
2000
1958
2069
2223
2097
2124
2153
2121
2011
1848
2074
2176
2016
2006
1958
2027
1937
1845
2071
2153
2069
1998
2040
2160
1935
1964
2082
2063
2116
2008
2092
2153
1943
2021
2082
2126
2108
2042
2147
2071
1872
1916
2069
2160
2103
2153
2105
2040
2006
1827
2006
2226
2037
2013
2071
2139
1987
1866
2037
2139
2150
2082
2095
2105
1859
1822
1927
2040
2069
2087
2184
2092
1919
1985
2087
2223
2176
2058
2103
2087
2011
1932
2019
2195
1964
1924
2113
2069
2008
1982
1979
2003
2034
2166
2097
2008
2069
2160
2069
2000
2097
2048
1953
2003
2011
2100
2100
2100
2160
1998
1995
2103
1987
1971
1995
2095
1929
1796
2137
2260
2137
2055
2050
2116
1977
1929
2042
2118
2087
1979
2027
2155
2139
2116
2050
2184
2145
1872
1901
1985
2021
1953
1811
1985
1979
1961
2090
2145
2084
1969
2129
2153
1987
2071
2071
2118
2100
2129
2179
1953
1998
2121
2108
2255
2063
1893
1935
2006
2087
2032
2040
2011
1935
2003
1982
2071
2000
1953
2097
2045
2071
2111
2069
2063
1958
2139
2103
2032
2218
2126
2032
1992
1982
2082
2063
2174
2037
1914
1961
1903
2121
2134
1995
2134
1995
2021
2048
1974
2092
2040
1974
1985
2090
2079
1882
2116
2187
2032
2069
2016
2034
2126
2024
2111
2116
1977
2040
2142
2063
1964
2040
2055
2016
2124
2095
2137
2006
1877
2027
1969
2040
2145
1977
2042
2006
1898
1961
2006
2121
2171
2063
2105
2105
2076
2066
2155
2200
2069
1953
1914
1969
2003
2006
2147
2092
2034
2108
2084
2053
2048
2027
2050
2092
2097
1995
2032
1950
1914
2084
2090
2100
2008
1872
2071
2124
2082
1998
1966
2118
2145
2084
2040
2008
1940
1856
2069
2181
2200
2142
1827
1882
2095
2055
2024
1937
2061
2118
1995
2006
2105
2252
2116
1950
2105
2006
2016
2055
2029
2213
2145
2024
1950
1966
2200
2027
2024
2134
2042
2079
1982
2019
2076
1964
2092
2118
2124
2074
1982
2055
2008
1998
2090
2121
2111
1982
1943
1929
1948
1977
1935
2097
2181
2013
2029
2087
2024
1977
2087
2111
2050
2160
2058
1914
2074
2006
2024
2118
2008
2042
2069
2048
2069
2082
2153
2079
2071
2037
1995
2126
2066
1992
2016
1966
1992
1943
2016
2163
2103
2074
2045
2011
2079
2103
2050
2003
2084
1971
1872
2058
2084
2063
2063
2050
2166
2050
2016
2013
1977
2055
1966
1992
2097
2076
2058
1990
2118
2118
2100
2184
2013
2016
2084
2003
2137
2084
2019
2024
1832
1901
2153
2179
2084
1945
1927
1916
1982
2076
2195
2258
1990
1927
2111
2069
2105
2116
2116
2113
2048
1924
1903
2003
1948
1969
2097
2074
2171
2118
2058
2069
1948
2024
2103
2084
2189
2129
2090
1932
1859
1992
1945
2037
2174
2071
2053
2016
2061
2087
2037
2097
2179
2189
1992
1927
2048
1845
1898
2079
2108
2158
1998
1964
2024
1992
2139
2090
2150
2202
2100
2200
2053
1914
1990
1911
2008
2055
1998
1958
1922
1932
1992
2174
2116
2027
2200
2011
1971
2100
2040
2118
2132
2076
2045
2011
2021
1911
2100
2226
2100
2147
2053
2061
2155
1906
1961
2071
1979
1979
1969
2006
1969
1945
2013
2074
2184
2097
2092
2061
1995
2103
2069
2034
2069
2024
2045
1979
2105
2197
1990
2021
2121
2124
2103
1958
1992
1995
1927
1893
2008
2171
2066
1990
2071
2055
2095
2024
1979
2019
2006
2011
1992
2087
2208
2105
2097
2113
2071
2016
2037
2142
2055
1961
2063
2163
2158
2011
2097
2111
1919
1880
1903
2082
2061
1824
2006
2095
2113
2126
2058
2150
2058
1924
1969
1964
2008
1979
2061
2113
2055
2045
2011
2187
2158
1908
2092
2055
1895
1898
2040
2268
2158
2087
2187
2160
2195
2037
2037
2137
1992
1945
1943
1953
1969
1893
2011
2042
2016
2016
2058
2166
2029
1964
2103
2145
2163
2079
2189
2153
1950
2045
1982
1914
1995
1961
2087
2079
2019
1964
1906
1995
2090
2147
2126
2116
2061
1803
1969
2197
2092
2042
2074
2239
2184
1943
2084
2142
2079
2021
2013
2095
1985
1861
1929
1987
2053
2045
2163
2223
2063
1945
1937
2050
2013
1922
2147
2076
1927
1903
1901
2113
2126
2003
2126
2179
2084
1906
2045
2210
2158
2158
2113
2121
2118
1880
1916
2105
2108
2019
2092
2229
2074
1848
1903
2003
2066
1998
2061
2226
2092
1848
1914
2074
2000
2006
2202
2061
1977
1948
1903
2118
2092
2069
2239
2103
2063
2027
2050
2058
1971
2105
2095
2113
2153
1950
2021
2079
2105
2069
1943
2095
2090
1974
2103
2137
2116
1977
1979
2108
1979
1995
2034
1969
1971
1872
2040
2150
1948
1903
2016
2040
1985
2097
2234
2192
2066
1798
1898
2132
2137
2216
2139
2147
2097
1869
2011
2071
2174
2221
2019
2042
2016
1961
2016
1937
2037
2129
1998
1953
2011
1935
1937
2074
2113
2124
2239
2197
2042
1890
1906
2087
2076
2021
2048
2076
2129
1864
1950
2150
2045
2129
2034
2000
2116
1945
1964
2029
2079
2145
2058
2061
2055
1964
1982
2071
2208
2132
2055
2139
2069
1911
1890
2042
2147
1914
1893
2184
2305
2092
1987
2116
2100
2053
1979
1987
2147
1927
1861
2019
1922
2061
2111
1974
2032
2053
2116
2024
2061
2142
2050
2189
2124
1992
2103
2045
2105
2037
1911
2111
2121
1927
1893
2079
2187
2063
2066
2053
2003
1929
1937
2134
2132
2040
2019
1914
1958
1979
2055
2153
2134
2179
2079
2168
2286
2037
2042
1998
2013
2029
1856
2121
2129
1803
1874
1950
2021
2097
2174
2202
2048
1953
2032
2111
2092
2090
2126
1998
1943
1953
2019
2024
2011
2147
2027
1943
2163
2048
2048
2202
2160
2142
1956
1971
2160
1964
1995
2045
1929
1940
1885
2045
2137
2063
2181
2103
2071
2097
2008
1974
1987
2103
2071
1971
2095
2066
1982
2069
2153
2155
2076
2003
2006
1964
1929
2021
2126
1992
2045
2150
1969
2048
2082
2034
2108
1961
2061
2053
2008
2168
1948
1956
2061
1961
2079
2058
2116
2103
1966
2053
2092
2126
2082
2053
2066
1935
1987
2003
2034
2103
2027
2087
2008
2000
2139
2084
2168
2048
1992
2055
1940
2084
2090
2087
2174
1982
2082
2053
2000
2129
2008
2105
2058
1950
2097
1914
1948
2063
1987
2037
1998
1990
1982
1992
2037
1945
2066
2108
2061
2063
2019
2113
2142
2069
2145
2195
2171
2037
2024
2105
2126
2071
1922
1977
2008
1895
2103
2132
2013
2003
1943
2029
2000
2021
2158
2048
2006
1979
2029
2163
2074
2129
2189
2069
2037
1982
2029
2037
1987
2024
2045
2061
1974
1979
2084
2027
2100
2124
2124
2174
1987
1969
2058
1990
1987
2006
2013
1908
2013
2116
1903
2076
2155
1979
2145
2124
2103
2137
2029
2021
2019
2032
2042
2045
2055
1964
2058
2090
2024
2071
2061
2103
2108
2097
2111
2008
2061
2042
1995
2082
2042
1995
1953
1974
2074
2029
2076
2016
1995
2145
2048
2087
2142
1966
2008
1992
1977
2042
2061
2061
2027
2095
2016
2048
2153
1929
2066
2071
1880
2087
2076
2105
2160
2013
2084
2118
2124
2087
2027
2013
1964
2082
2129
2079
2171
2045
1901
1929
1961
2048
2042
1998
1985
2074
2150
2003
2034
2087
2166
2074
1893
2166
2118
1922
2066
2058
2095
2090
2090
2111
1898
1790
1882
2040
2069
2076
2255
2090
1953
2147
2111
2034
2090
2061
2021
2037
2160
2079
1866
1987
2166
2071
1927
2006
2092
1985
2071
2163
2095
2024
2084
2181
2016
1971
2027
1869
1911
1950
2063
2134
1919
1953
2069
1987
2040
2063
2066
2137
2208
2142
2032
2137
2210
2053
2011
2050
1982
1906
1966
2040
1977
2032
2202
2250
2192
2055
2163
2179
2000
2013
2066
2003
1788
1793
1992
1945
2034
1998
1956
2174
2079
2097
2092
1945
2095
2042
2024
2084
2032
2111
2153
2171
2097
2050
2218
2074
1856
1998
2145
2003
1932
2076
2147
2058
1922
2021
2179
2008
2032
2066
1974
2113
2021
2019
2142
2003
2160
2045
1866
2069
1798
1777
2079
2063
2118
1982
2037
2155
1929
2071
2213
2147
2139
2042
2111
2037
1853
2066
2155
2053
2066
2050
2071
2055
1927
1977
2087
1992
2008
2111
2095
2087
2016
2016
2137
2105
2150
2105
2066
2113
1974
2000
1953
1864
2124
2045
2011
2053
1877
2076
2084
1998
2145
2045
2095
2100
1982
2050
2139
2087
1961
2050
2111
1990
1922
1903
2145
2121
1919
2100
2095
2037
2124
2121
2145
2058
2084
2100
2116
2155
1916
1992
2084
1998
2174
2071
2058
2066
1738
1853
2013
2016
2097
2027
2092
2053
1940
2100
2187
2058
2019
2024
1866
1987
2229
2087
2079
2061
1935
2082
2184
2160
2074
1985
1977
1992
2139
2095
2111
2129
1848
1974
2168
2071
2055
1908
1966
1971
1916
2134
2053
2045
2210
2042
2087
2242
2124
2011
2095
2071
2016
2034
1882
1877
2006
1927
1985
2074
2055
2139
2168
2142
2048
1953
2055
2016
2042
2181
2105
1958
1872
2021
2108
2042
2121
1971
1979
2116
2042
2108
2066
1958
1998
2011
2126
2108
2082
2095
1992
2066
2087
2063
2082
2045
2074
1943
1961
1995
1866
2037
2071
2021
2097
2019
2029
1987
2021
2111
1998
2082
2195
2210
2192
2053
2145
2160
2006
1990
2037
2166
2150
2042
2066
2024
1958
1856
1969
2100
2048
2050
1908
1985
2160
2071
2090
2058
2069
2063
2000
2021
1932
2003
2074
1880
1969
2103
2142
2137
2011
2103
2095
1932
1964
2048
2132
2061
2011
2061
2076
2092
1974
2016
2055
1971
2145
2147
2134
2097
2019
2050
1945
2000
1992
1966
2189
2042
1987
2048
1911
2058
2058
2011
2202
2121
2129
2160
2095
2092
1961
2000
2095
2118
2105
1971
2019
1922
1848
2021
2055
2082
2079
2100
2124
1990
1919
1982
2121
1990
1908
2124
2037
1982
2076
2129
2210
1914
1914
2176
2095
2100
2029
1998
2097
1937
1966
2163
2168
2097
2111
2142
2032
1969
2000
1971
2071
2063
2008
2079
2082
2045
2011
2013
2048
2050
2029
2050
2168
2006
1856
2053
2082
2142
2153
2079
2202
1971
2019
2221
1945
2027
2147
1937
1780
1764
1992
1982
1977
2153
2137
2097
1943
2050
2260
2082
2142
2155
1992
2032
2019
2003
2013
2069
2097
2082
2118
2061
2084
2071
2050
2079
1958
2027
2074
1964
2019
1927
1859
1945
1979
2124
2108
2074
2163
2066
2058
2103
2132
2090
1974
2048
2055
1985
1990
1958
2040
2029
2048
2092
2053
2111
2045
2032
2084
2042
2097
2048
2032
2105
2045
2071
2147
2153
2179
2134
2034
1974
2071
2079
1958
1964
1948
1969
1937
1922
2174
2158
1927
1922
2048
2168
2008
1903
2045
2013
1985
1985
2105
2168
1995
2019
2045
2139
2229
2029
2063
2090
2008
2019
2045
2181
2082
2066
2163
1992
2016
1932
1956
2163
2040
2063
2092
1998
2011
2061
2121
2003
2011
1964
1880
2137
2095
2006
2100
1987
2103
2166
2087
2118
2003
1877
1903
2016
2061
1998
2032
2087
2121
2124
2032
2058
2063
2055
2050
2097
2108
1893
1953
2108
2084
2092
1987
1979
1998
1940
2147
2176
2079
2103
2016
2108
2111
1995
2071
2029
2069
2155
2142
2160
2058
1937
1916
1916
1964
1953
1966
2058
2053
2027
2050
2116
2150
2134
2092
2061
2134
2011
1950
2058
1979
2048
2055
2090
2313
2121
1916
1940
1974
2037
2034
2137
2129
1953
2003
2000
2000
2006
1992
2116
2053
2050
2142
2071
2050
2032
2092
2174
2045
1948
1979
2032
2019
2074
2116
2003
2013
1906
1874
2082
2097
2082
2040
2016
2024
1943
2103
2189
2124
2097
2040
2187
2147
1985
2061
2048
2063
1995
1953
2179
2108
1906
1929
2008
2105
2066
1987
2048
2171
2071
1935
2063
2103
2040
1990
2045
2174
2016
1950
2029
1932
1977
2034
2061
2097
1995
2045
2050
2016
2016
1924
2166
2192
1987
2097
2069
2019
2063
2053
2153
2116
1903
1845
2074
2132
1995
2145
2174
2050
2079
2013
2000
2061
2011
1982
2055
2158
2069
1908
1974
2055
2139
2079
2029
2200
2055
1966
2139
2100
2006
1990
2069
2011
1974
2153
2087
1985
1908
2024
2271
2124
2074
2108
1987
1924
1872
2008
2058
2045
2066
1956
2040
2158
2066
2016
2147
2321
2103
1880
1971
2006
2027
2013
2074
2181
1948
1927
2134
2210
2158
2048
2121
2063
1979
1992
1853
1932
2008
1937
2084
2142
2048
1914
1961
2181
2061
1914
2037
2216
2142
2024
2223
2195
2019
2055
2087
2195
2105
1872
1935
1940
1887
1998
1998
2003
2105
2090
1956
1990
2153
1990
1958
2142
2055
2003
1987
2042
2066
1992
2111
2132
2076
2029
2037
2166
2071
2058
2150
2132
2076
1982
2048
2003
1924
2063
2040
2011
2006
1914
1922
1964
2116
2118
2053
2237
2160
2024
2097
2087
2192
2111
1979
2147
2132
1937
1880
2021
2019
1971
2084
2118
2137
2016
1937
2027
1945
2019
2079
1958
2048
2042
2034
2132
2076
2008
1935
2082
2066
1979
2129
1998
2021
2084
1956
2179
2179
1995
2066
2045
1961
1956
1987
2008
2145
2187
2076
2202
2132
1998
2061
1924
2045
2079
1908
2074
2121
2061
1971
2050
2218
1961
1935
2021
1971
2040
1877
2079
2305
2011
2090
2234
2105
2003
1953
2074
2040
1966
2037
1961
1964
1943
1908
2040
2079
2137
2118
2097
2184
2139
2032
2000
2153
2153
2000
2013
1998
1985
1864
1961
2205
2008
2019
2150
1995
2084
2134
2134
2216
2095
2021
2076
2063
2003
1974
2006
1969
1943
1924
1956
2153
2142
2011
2079
2095
2092
2029
1932
2013
2050
2021
2058
2113
2061
1924
1950
1958
2034
2024
1953
2179
2124
2011
2126
2074
2139
2008
1950
2189
2074
1974
2058
2153
2163
1992
2097
2208
2108
2053
2016
2024
1977
1961
2100
2139
2053
1961
2024
2066
2003
1964
1919
2032
2019
1864
1992
2053
2082
2063
2027
2208
2097
1935
2013
2103
2218
2079
2008
2105
1985
1974
2024
2084
2118
2069
2158
2108
2042
2027
1922
1982
1979
2021
2108
2016
2024
2003
2071
2179
2100
2111
2040
2003
2058
1982
2008
2019
2069
2116
2155
2331
2132
1974
2063
1956
2006
1950
1982
2076
1793
1927
2142
2048
2071
2037
2113
2179
1974
1861
1922
1995
2000
2076
2137
2069
2071
2019
2029
2134
2137
2139
2092
2097
2105
1956
1971
1992
2048
2132
2027
2079
2003
1929
2058
1985
2061
2024
1987
2155
1971
1950
2061
2042
2003
1974
2213
2197
2058
2150
2121
2121
2097
2045
2113
2079
2016
1906
1914
2103
2121
2066
2040
2016
2048
2008
1982
2013
2079
1964
1882
2163
2055
1885
1990
1882
2100
2223
2116
2247
2092
1977
2048
2032
2116
2142
2092
2021
1992
1977
1935
1998
1964
2006
2121
1987
2029
2105
2053
2142
2074
1985
2016
2095
2192
2216
2158
1987
1940
1932
1950
2195
2187
1979
1895
1832
1974
2103
2134
2147
2042
2084
2082
2134
2184
1956
1964
1982
1927
2040
2069
2061
1953
1927
2050
2121
2129
2027
1966
1987
2003
2029
2084
2189
2195
2108
2082
2032
2050
2121
2034
2037
2079
1956
1927
1935
1958
2027
2021
2055
2069
2032
2048
2184
2221
2029
2045
2108
2055
2032
1943
2092
2137
1924
1956
2050
2092
2045
2019
2071
2008
2142
2142
2032
2168
2074
2042
2079
1948
2111
2090
1935
2003
1979
1979
2045
2063
2063
2100
2181
2111
2032
1908
1893
2040
1982
2045
2132
2032
1990
1969
2040
2121
2223
2221
2063
2105
2079
1979
2024
1956
2024
1977
1911
2084
2061
2055
2105
2100
2174
2024
2029
2124
1940
1919
2008
2037
2021
2000
2066
2090
2071
1982
1953
2050
2071
2071
2134
2116
2008
1971
2058
2121
2168
2074
1937
2042
2000
1979
2187
2142
2097
2087
1979
2011
2013
1964
2000
2034
2050
1992
2011
2045
2042
2132
2053
2095
2187
2029
2116
2113
1971
1995
1998
2058
2076
2000
1987
2008
2055
2092
2184
2197
2090
1990
1898
1964
1924
1919
2048
1953
2050
2058
2024
2200
2103
2113
2181
2061
2032
1903
2027
2142
1929
2079
2097
1937
2016
1995
2095
2132
1985
1982
2129
2200
2087
2121
2139
2053
2090
2042
2100
2124
1971
1927
1932
2034
2011
1950
2076
2019
2027
1985
1969
2079
2003
2118
2142
2008
2076
1958
2066
2250
2082
2121
2189
2074
2024
1922
2003
2116
2011
1945
1956
2011
2019
1966
2045
2150
2113
1948
2032
2184
2082
1987
2021
2090
1990
1966
2084
2008
2019
1990
2084
2300
2084
1990
2208
2179
2029
1945
1937
1932
1979
1958
1956
2205
2158
1919
2113
2171
2074
2118
2066
2097
2019
1898
2055
2045
2024
2111
2058
1977
1990
2063
2063
2082
2016
1898
2042
2071
2040
2124
2097
2103
2090
2071
2116
2105
2037
1943
2071
2103
1982
2042
2037
2024
1961
1885
2103
2074
2011
2058
1971
2105
1995
1838
2111
2242
2126
2034
2210
2158
1845
1927
2082
2103
2071
2034
2187
2166
1990
1985
2063
2079
1982
2011
2087
2013
1916
1822
2006
2087
1990
2108
2063
2069
2113
1998
2189
2216
2032
2027
2079
2076
1998
2095
2092
1953
2048
1987
2011
2105
2016
2090
2019
2040
2242
2105
2055
2027
1974
2000
1945
2055
2092
1987
1885
1874
2040
2071
2184
2255
2097
2124
2045
1943
2011
2034
2145
2053
1982
2105
2027
1922
2011
2142
2129
2045
2071
2016
1964
2040
2105
2121
2029
2069
2105
1982
2006
1961
1982
2029
2016
2163
2055
2003
2042
1927
2053
2082
2050
2069
2019
2061
1977
1914
2055
2113
2079
2058
2126
2071
1958
2084
2171
2174
2132
2029
2066
2008
2034
2147
2029
2055
2103
2024
2016
1956
2053
2063
1948
2045
2061
2003
2029
2045
2040
2045
2100
2048
2008
2040
1998
1998
1961
2024
2139
1995
2027
2213
2171
2042
2040
2100
2034
2032
2108
2105
2006
1817
1924
2034
2024
2137
2058
1985
2000
1927
2000
1945
2042
2202
1977
2145
2273
2013
2090
2071
2121
2239
2105
2108
2079
1945
1914
2013
2097
2027
2145
2084
1869
1906
1908
2006
2134
2050
2048
2147
2087
1979
2063
2066
2040
2103
1966
2076
2205
1916
1964
2124
2116
2142
2011
2006
2048
1964
2024
2040
2053
2129
2124
2092
2048
2050
1992
1864
2021
2155
2118
2084
2003
1964
1966
1924
2011
2171
2113
2071
2189
1922
1819
2087
2071
2137
2137
2024
2045
1861
1898
2079
2063
2168
2166
2069
1977
1935
2045
1977
2040
2147
2121
2242
2124
2034
2134
2034
1971
1969
2074
2134
2042
1940
1903
2063
2124
2097
2168
2076
2024
2027
1990
2008
1979
2034
2013
1979
2087
2074
2050
1971
1977
2050
1948
2084
2200
2053
2074
2042
2058
2100
2032
2208
2195
2006
1966
1935
2092
2153
2063
2053
2069
2000
1880
2027
2032
1958
2037
1903
1990
2076
1953
2084
2160
2108
2029
2113
2160
1929
2006
2045
1992
2171
2097
2134
2255
2037
2019
2076
2061
2105
2016
2019
1979
1919
2027
2042
2095
2090
2024
2003
1987
1948
1943
2142
2166
1987
2013
2058
2082
2069
2055
2126
2045
1961
1948
2066
2226
2087
2016
2016
2032
2226
2100
2011
2006
1908
2024
2006
2074
2153
1961
2000
2048
2019
2087
2074
2011
1935
2021
2071
2069
2016
1911
2134
2132
1964
2079
2050
2132
2074
1908
2092
2069
2013
2016
2037
2147
2029
2076
2168
2105
2158
2095
2087
2058
2013
2097
2048
2092
2048
1890
1982
1916
1916
2105
2113
2137
1985
1872
1992
2074
2066
1937
2055
2126
1943
2011
2108
2103
2024
2066
2263
2176
2134
2069
1958
2147
2040
1940
2103
2055
1985
1950
2090
2195
1966
1953
2074
2189
2137
1843
1990
2095
1958
2000
2029
2134
1987
1832
2032
2016
1945
2019
2116
2042
1971
2153
2105
2061
2108
2095
2252
2155
1903
1911
2050
2108
1966
2092
2176
2050
2100
1992
2061
2237
1985
1922
2032
2042
2008
1943
2095
2097
1914
1985
2095
2050
1919
2000
2202
2265
2150
1932
2095
2160
1911
2027
2134
2111
1977
1796
1964
2037
2040
2050
2021
2118
1961
1927
2024
1956
2121
2160
2147
2223
2029
2008
2092
2082
2113
2042
2061
2092
1979
1977
2048
2111
2019
1948
2032
2069
2090
2013
1974
2045
1958
1998
2100
2147
2045
1958
2121
2053
2021
2171
2142
2184
2000
1956
2145
2021
1971
1953
2050
2142
1950
2097
2158
2061
2111
1950
1974
2071
1937
1906
1982
2082
1990
2019
2118
1990
1995
1990
2029
2087
1987
2111
2105
2095
2139
2063
2097
1992
2032
2205
2126
2174
2079
1932
1974
1966
2108
2155
2132
2074
1927
2006
1992
2024
2034
1998
2124
2000
1919
2000
2011
2058
1961
1971
2142
2192
2155
2021
1998
2076
1956
2042
2158
2124
2087
1916
1990
2097
2011
2139
2108
1961
2016
2116
2124
1982
2024
2126
2082
2006
1932
2045
1979
1908
2069
2087
2092
2103
2061
1998
1937
2074
2100
2037
2105
2184
2145
1982
1992
2116
2058
2103
2037
1966
2008
1979
2011
1987
1987
2095
1961
1919
2053
2145
2058
1916
2016
2042
2029
2155
2129
2082
1990
1985
2126
2090
2050
2097
2134
2153
2103
2231
2155
1964
1950
1906
2074
2132
1982
2008
1966
1977
1995
2016
2103
2071
2055
2029
1982
2037
2061
2118
2087
2095
2069
1964
2055
1977
1932
2121
2103
2090
2048
2019
2045
1990
2013
2016
2116
2158
1929
1964
2061
2105
2142
2061
2153
2153
2034
2011
1932
2027
2003
2000
2205
2061
1982
2108
2053
2058
2055
2074
2090
2021
1979
1964
1998
2042
2037
2050
2108
2213
2071
1908
1964
2147
2126
1872
1982
2071
1893
2061
2071
2032
2134
2034
2095
2150
2066
2150
2071
1935
1916
2063
2105
1932
2021
2045
1969
2082
1971
2019
2113
2029
2118
2105
2108
2155
2045
2090
2058
2024
2021
1982
2003
1940
2000
2108
2079
2037
1982
2150
2184
2063
2074
2045
2034
2008
1979
2042
2003
2124
2076
1890
1998
1974
1937
1969
1971
2242
2229
2129
2176
2187
2181
2021
1995
2074
1948
1992
2048
1971
1903
1992
2150
2129
2147
2142
2021
1998
1880
1893
1943
2037
2055
1974
2132
2066
1916
1940
1859
2121
2229
2103
2229
2187
2063
1971
2006
2229
2045
2034
2129
1956
1992
1916
1922
2087
2011
2084
2124
2100
2071
1937
1987
2171
2166
2105
2150
2155
1969
1929
1943
1950
2000
1985
2137
2179
2063
2103
1943
1995
2061
2066
2184
1953
1908
2050
1872
1961
2116
2124
2076
2021
2097
2050
2019
2116
2037
2129
2137
2050
2029
1940
1969
2029
2037
2113
2171
2174
1998
2029
2158
2187
2050
1940
2053
2027
1985
2037
1979
2029
1908
1859
2100
2071
2016
2034
1929
2116
2147
2145
2263
2139
2076
2069
2011
2003
1956
2090
2121
2024
2019
2040
1906
1866
2084
2213
2202
2168
2045
2071
1932
1859
2087
2100
2013
1919
1880
1985
1861
2016
2163
2111
2250
2108
1945
2003
2024
2124
2069
2111
2192
2097
2105
2079
2134
2184
1901
1887
1992
1987
2027
2006
2016
1969
2008
2116
2048
2058
2000
2024
2074
2050
2184
2142
2008
1982
1919
2063
2116
2048
1971
1924
2040
2076
2118
2181
2050
2055
2034
2029
2126
2113
2142
2105
2008
2071
2118
2090
1958
1961
2000
1977
2011
1992
2034
2082
2050
2129
2040
2121
2124
1877
2037
2013
1992
2160
1935
2029
2066
1935
2111
2100
1998
1987
2003
2055
2048
2121
1998
1992
2126
1966
1971
2071
2066
2071
2003
2108
2153
2103
1966
1987
2260
2137
1948
2048
2105
2200
2090
2097
2168
1932
1922
1992
2063
2095
1832
1958
1916
1811
2132
2179
2145
2092
1992
2150
2113
2045
2058
2103
2134
2045
2011
2029
2079
2076
1919
2019
2187
2084
1885
1958
2082
1932
1932
2000
2034
2273
2097
2024
2168
2016
2053
2037
2124
2279
1916
1895
2016
1992
2053
2076
2231
2179
1932
2034
2071
1974
1974
2097
2118
1969
1958
2100
2042
1940
2058
2042
1817
1964
2053
1977
2076
2100
2095
2090
2074
2202
2097
2074
2111
2037
2111
2019
2069
2160
1832
2024
2171
1914
1906
1932
2076
1998
1869
2153
2181
2179
2055
1974
2263
2105
1851
2061
2042
2050
2147
2092
2134
2200
2032
1990
2113
2003
1995
2071
1922
1948
2011
2076
2103
2000
2053
2066
1987
1961
1861
2076
2137
1985
2103
2013
2040
2116
1885
2053
2163
2040
1977
2074
2265
2179
2024
2097
2223
2124
1932
2132
2137
1924
1885
1974
2129
1982
1861
2082
2100
2040
1995
2053
2116
2003
1990
2008
2111
2166
1916
2040
2084
1990
2092
1998
2116
2216
2029
2084
2024
1945
1977
1985
2016
1995
2027
2013
2003
2147
2087
2029
2000
2000
2034
1979
2027
2082
2079
2097
2061
2150
2084
2027
2095
2097
2166
2158
2032
1953
1895
2076
2118
2021
2066
2063
2074
2048
1992
2100
2063
2045
2034
2076
2129
1992
1985
1964
1922
2019
1880
1932
2003
1927
2037
2082
2061
2095
2174
2187
2121
2218
2097
1995
2008
1861
1929
2008
1995
2121
2095
2092
2040
2037
2087
2029
2066
1964
1866
2013
1966
2021
2160
2118
2132
2202
2237
2153
2090
2202
2055
1979
2121
2184
2113
1929
1882
1940
1943
1974
2008
2145
2076
1950
2003
2008
2071
2092
2021
2145
2116
1998
1950
2027
2111
1982
2011
2195
2095
2037
2066
2108
2048
1914
2071
2242
2092
1929
2008
2016
1819
1987
2037
1992
2195
2034
2000
2260
2166
2076
2000
2040
2116
1974
1935
2037
2174
2103
1943
2124
2066
1977
2024
2061
2116
1937
1979
2092
1924
1950
2024
2150
2066
1974
2097
1982
2040
2003
1908
2237
2134
1985
2082
2139
2174
1956
1982
2145
2048
2071
2053
2105
2090
1914
2008
2132
2069
1953
1979
2160
2045
2006
2103
2042
2076
2050
2037
2174
2100
1971
1929
2029
1932
1848
2034
2027
2055
2111
2066
2223
2027
1940
2176
2142
1985
1872
2034
2121
1958
2048
2003
2079
2121
1908
2090
2239
2132
1987
1893
2076
2100
1969
2019
2155
2158
2055
2074
2195
2134
1971
1945
2061
2000
2016
2187
2037
1890
1945
1929
2082
2100
2153
2226
2124
2100
1940
1940
2097
1966
1961
1995
2118
2108
1811
1845
1987
1979
1992
2045
2321
2263
2003
2034
2087
2116
2108
2092
2142
2116
2053
1943
1992
1982
1901
2034
2105
2076
1974
1932
2118
2016
2006
2147
2126
2132
1880
1937
2281
2103
1998
1990
2037
2074
1916
2029
2150
2139
2139
2000
2071
2058
2016
2082
2053
2074
2082
2008
1953
2000
2045
1982
2108
2066
1992
2155
2142
2095
1966
1798
2008
1935
1893
2155
2187
2160
2021
2003
2189
2134
2168
2139
2016
2016
2040
2021
1919
1893
1932
1950
2037
2066
2168
2063
1966
2126
2100
2113
2247
2116
2011
2029
2071
2013
1940
1990
2042
2153
2163
2000
2069
1953
1992
2205
1950
1982
2082
1924
2006
1961
2084
2142
1985
2013
2008
2095
2121
2040
2058
2042
2158
2105
1872
1935
2058
2011
1974
2053
2192
2137
2061
2013
2019
2090
2069
2029
1964
2008
2100
1961
2040
2034
2019
2118
2003
2137
2189
1956
2027
2048
2074
2118
2158
2197
2013
1998
2087
2037
2029
1956
1966
1958
2027
2103
2016
1948
1966
2097
2069
2013
2205
2090
2003
2071
2090
2103
1877
1922
2071
1979
2189
2137
2032
2092
2013
2163
2126
1979
2061
1929
1990
2069
2097
2124
1932
2053
2155
2013
2163
2139
1964
2019
1992
1819
1895
2092
2055
2003
2050
2011
2050
2003
2040
2171
2147
2111
2058
2071
2105
1929
1977
2040
2069
2166
2142
2205
2113
1998
2168
1995
1911
1990
1977
2118
2016
1840
1966
2016
1961
1977
2210
2205
2029
2071
2019
1977
2111
2118
2074
2153
2265
2053
1924
1985
1971
2048
2029
1969
2021
1948
1979
1979
2048
2058
1964
2195
2153
1845
2006
2045
1992
2063
2121
2192
2042
1916
1987
2082
2263
2158
2079
2124
2103
2118
2071
2045
1974
1985
2037
1869
1961
1874
1680
1893
2021
2103
2263
2276
2137
1953
2105
2195
2134
2158
2032
2066
2037
1861
2066
2216
2174
2037
1995
2132
2040
1977
2048
2034
2087
1950
1974
2116
2006
1953
1990
2048
2016
1943
2124
2158
1977
1971
2108
2032
1916
2011
2079
2082
2126
1985
2053
2139
2061
2121
2082
2113
2147
1906
1903
1927
1943
2019
1979
2053
2129
2048
2021
2084
2160
2100
2158
2139
2069
2147
2100
2105
2126
1982
1995
1987
2016
2011
1937
1948
1906
1935
2050
2071
2116
2061
2053
2042
2029
2113
2066
2040
2008
2006
2100
2019
2095
2095
2055
2168
2008
1979
2066
2055
2192
2084
2095
2132
1971
2006
1998
2024
2071
1977
2024
2019
2100
2071
1885
1924
1990
2074
2082
1998
2116
1887
1822
2058
2045
2184
2252
2153
2124
1948
1998
2103
2095
2179
2255
2210
2034
1979
2016
1985
2079
2058
2000
1966
1914
1971
1977
2069
2145
1998
2013
2032
2124
2113
1958
2124
2074
1827
2016
2195
2163
2040
2027
2079
2069
1935
1916
2103
2090
1906
1979
1987
1964
2045
2055
2126
2276
2142
1945
2011
2032
1937
2016
1971
1995
2071
1979
2105
2189
2024
2063
2061
2145
2195
2150
2179
2042
2037
2197
2100
2055
2048
1893
1733
1827
1969
1898
1982
2066
1966
2113
2189
2163
2208
2087
2029
2087
2024
2011
2090
2105
1977
1995
2058
2029
2050
2058
2048
2016
1906
1992
2063
2100
2087
2027
2126
1966
1898
2084
2084
2231
2174
2045
2129
1950
1950
2074
1995
2069
2027
1974
2019
2034
2053
2053
2137
2176
2155
2126
2021
2034
1982
1982
2032
1974
2042
1979
1864
2011
2034
2024
2013
2103
2153
2069
2150
2103
2095
2121
1956
2168
2108
1914
2103
2024
1922
1987
2053
2205
2105
1998
1998
2040
2100
1995
1969
2063
2008
1929
1922
1971
2003
1977
1995
2108
2132
2126
2079
2021
2003
2074
2187
2231
2200
2108
2097
2006
1914
1987
2000
2213
2116
1901
2084
2045
1990
2032
1987
2150
2095
1932
1911
1995
1987
1950
2210
2247
2027
2090
2013
1953
2058
2050
2063
2069
2003
1961
2048
2139
2069
2132
2061
2019
2100
1911
1906
2040
2055
2181
2003
1998
2187
2048
2050
2074
2006
1998
2006
2079
1950
2027
2071
1903
2013
2050
2071
2234
2126
2027
2079
2142
2037
1990
2090
2121
2218
2092
1864
2008
2027
2003
2021
2032
2082
1901
1943
2084
1969
2053
2129
2134
2092
2111
2142
1901
1922
2050
2042
2181
2050
1961
1950
1945
2168
2118
2045
2160
2118
2105
2032
1998
2082
2061
2024
2019
1992
1945
1943
1998
1927
2058
2229
2045
1948
2105
2108
1985
2011
2124
2071
2139
2082
1874
2024
2121
2095
2090
1982
2100
2097
2027
2061
2045
2087
2037
2050
2163
2061
2074
2071
1974
2006
2066
2095
2000
1961
2003
1929
2029
2071
2050
2076
2061
2058
1956
1990
2097
2037
2027
1937
2063
2174
2000
2055
2066
2021
2116
2082
2066
1956
2042
2155
2071
2082
2024
2037
2032
1950
2103
2021
1982
1998
1950
2129
2160
2124
2087
2027
2150
2092
2040
2008
2006
2097
1945
1943
2061
1927
1982
2037
2016
2079
2176
2229
2134
2142
2118
1958
2055
2021
1929
1887
1893
2053
2021
2090
2195
2037
2042
2048
2195
2181
1901
1953
1982
1966
2045
2027
2087
1953
1982
2139
2058
2126
2134
2000
2016
2053
2100
1969
2063
2208
2003
2029
2147
2097
2129
2071
2058
2032
1969
1945
1987
2032
1893
1911
2053
2053
2168
2132
2066
2024
1919
2032
2084
2013
2048
2071
2155
2103
2027
2079
2074
2103
2090
2069
2150
2021
1943
1990
2032
2027
1958
1919
1887
2016
2118
1956
2074
2121
2032
2134
2129
2160
2142
1964
1956
1943
2055
2066
2066
2147
2024
2069
2134
2092
2121
2003
2040
2129
2137
2092
2053
2061
1935
1977
2079
1964
2095
1995
1903
2095
1992
1992
2061
1998
2074
2029
2024
1998
1935
2027
2111
2113
2058
2100
2124
2042
2145
2050
1987
2082
2027
2142
2108
1919
2000
1992
1998
2048
2129
2129
1982
2045
2074
2029
2063
1985
2082
2069
2042
2132
1990
1950
2027
2097
2142
1958
2118
2134
1903
1995
2027
2097
2040
1924
2226
2105
1877
2000
2016
2032
2108
2184
2163
2021
1995
1985
2037
2045
2048
2058
2045
2092
2006
1971
2095
2045
2084
2042
2116
2276
1919
1790
1992
1950
2040
2079
2171
2189
1977
1995
2063
2040
2058
2032
2029
1958
2006
1964
1964
2058
1958
2050
2179
2155
2155
1979
2092
2147
2008
2084
2079
2137
2055
1932
2150
2076
2092
2155
1945
1958
2032
2040
2024
1969
2058
2000
2027
2071
2045
2103
1940
2058
2307
2090
2121
2100
1840
1777
1953
2181
2019
1840
2006
2042
2074
2129
2137
2050
2055
2108
2061
2158
2097
1961
2006
1977
2111
2103
1995
1966
1916
2021
2024
2013
2124
2024
2126
2218
2050
2053
2147
2147
2024
1966
2132
2034
1914
1987
2071
2142
2037
1924
1953
2021
2079
1929
2019
2155
2071
2055
2061
2179
2129
1922
1943
1995
2137
2071
2037
2195
2097
2003
2021
2063
2171
2034
2032
2055
1982
2048
2045
2058
2076
2003
2050
2011
2016
2063
1979
1956
1977
1992
2058
2076
2066
2016
2116
2090
2032
2171
2113
2092
2124
2006
2037
2045
2074
1987
1990
2150
1964
1987
2160
1964
1982
2021
2029
2029
1950
2076
2100
2048
2108
2037
2103
2019
1911
2053
2069
2021
2034
1987
2066
2145
2082
1977
2045
2016
1990
2019
1974
2074
2021
1995
2263
2163
2121
2174
2142
2145
1971
2037
2029
1764
2008
2087
2079
2210
1998
1924
2050
2100
2129
2027
2055
2019
1901
1869
1945
2029
1971
1922
2034
2176
2184
2024
2116
2145
1990
2061
2155
2132
2069
2013
2071
2000
2071
2042
2013
2218
2092
2024
2100
1992
2097
2000
2003
2105
1929
1874
1911
1974
2116
2071
2061
2048
2105
2097
2074
2202
2103
1974
2071
2050
2000
1977
2055
2050
2040
2069
2034
2166
2087
1856
2066
2011
1961
2158
2076
2084
2040
1880
1914
1927
2092
2139
2003
1990
2000
2029
2042
2027
2163
2095
2040
2137
2048
2027
2126
2126
2105
2105
2113
2034
2032
1995
2069
2147
2013
2042
2037
1998
2048
1887
2008
2013
1966
2108
1992
2040
2103
2045
2171
2079
2076
1982
1901
1990
1885
1937
2034
1924
2082
2163
2139
2145
2139
2155
2116
2129
2150
2111
2058
1916
1969
2032
1969
1940
1987
2066
1998
2024
2184
2066
2113
2061
2048
2213
2024
1992
2053
1914
1929
1890
2011
2076
2084
2150
2076
2113
2024
1958
2163
2095
2092
2055
1956
2024
2027
2105
2158
2027
1974
2027
2158
2105
2050
2008
1943
1987
2016
2100
2197
1958
1887
1943
1969
2087
2087
2079
2061
1992
2055
2055
2129
2116
2027
1995
1911
1964
2045
2045
2139
2063
2024
2087
2147
2158
2082
2084
2111
2063
2082
2071
2076
1966
1893
2003
2040
2087
2066
1969
2108
2029
2055
2137
2003
2058
2045
2008
2032
1995
2034
1953
2048
2076
1969
2111
2142
2061
2053
1987
2011
1998
2003
2042
2139
2042
1903
2137
2137
2042
2202
2069
2069
2084
1945
2048
1977
1851
1964
1974
2076
2155
2145
2082
2048
2124
2061
2163
2237
2029
2021
1932
1911
2003
2000
2132
2097
1958
2074
2103
2008
1990
2153
2197
2090
2027
2016
2040
1964
1948
2084
2069
2076
1987
1898
2090
2103
1992
2082
2134
2163
2019
1987
2076
2040
2011
2003
2118
2111
1890
1969
1961
1872
2037
2147
2142
2097
2008
1935
1992
2103
2019
2100
2139
2063
2113
2037
2129
2181
1927
2061
2163
2016
1964
1974
2061
1992
1979
2132
2063
2013
2037
2113
2105
1995
2084
2084
2021
2069
2071
2116
1992
2006
2105
1977
1961
2045
2024
1966
1966
2076
2048
2040
2048
2011
2016
2042
2160
2153
2113
2184
2008
2034
2042
1953
2100
1887
1861
2158
2037
2024
1982
1916
1979
1948
2121
2205
2150
2137
2011
2066
2095
2074
2061
2050
2111
2029
1977
1990
2006
2108
2105
2229
2239
2037
1979
1979
2069
1977
1864
2048
1974
2019
2029
1898
2097
1940
1835
2153
2111
2153
2113
1998
2250
2252
2058
2111
2237
2147
1903
2037
2137
1985
2019
2048
2105
2063
1822
1890
2037
1969
1945
2105
2076
1964
2090
2145
2137
2105
2008
2100
2082
2045
2016
1908
2053
1995
1940
2234
2181
2074
1940
1859
2045
1982
1950
2071
2100
2037
1872
2032
2132
1998
2116
2166
2095
2116
2008
1982
2042
2032
2021
2092
2053
2034
2181
2061
2053
2176
1908
2016
2139
1987
2079
2079
2006
2006
2040
2074
2071
2142
2008
2000
2074
1935
2040
1969
1848
2132
2103
2006
2063
2061
2066
2016
2103
2189
2071
2053
2024
1958
1953
2000
2145
2142
2063
2121
2166
2092
1982
2084
2103
2066
2090
1985
1982
1995
1985
1961
1887
2116
2126
2008
2100
1948
1987
2129
2037
2132
2142
2034
2003
1966
1966
2008
2045
2027
2074
2155
2053
2105
2108
2034
2100
2029
2061
1950
1796
2076
2155
2034
2027
2097
2153
2053
2066
2150
2092
1992
1956
2061
2024
1953
2032
2024
2040
2042
2032
2116
2087
2139
2132
2071
2037
1924
2013
2066
2076
2042
1874
2071
2195
2032
1958
2037
2192
1985
1937
2147
2024
1992
1932
1945
2166
2042
1987
2066
2058
2116
1998
2071
2239
2126
2097
2113
2066
2019
2024
2121
2184
2011
1782
2021
2223
1927
1916
2076
2006
1987
1961
2118
2171
1985
1964
1961
2037
2042
2013
2171
2063
2037
2016
1927
2168
2132
2053
2192
2021
1932
1948
2053
2168
1961
1885
2129
2258
2016
1927
2142
2063
1940
2034
2174
2139
1979
2063
2163
2095
2019
1966
1908
1861
1977
2027
1948
2108
2105
1985
2195
2121
2048
2192
2084
2118
2071
1919
2058
2097
2045
2019
2063
2045
1945
2084
2134
2008
1979
2013
2063
2053
2145
2092
2003
2071
1964
1911
1982
2063
2000
1908
2134
2069
1966
2116
2084
2265
2210
1929
2116
2092
2006
2082
2042
2134
2021
1882
2011
2003
2006
1974
2021
2118
2013
1922
1943
2142
2076
1887
2200
2226
1979
1998
2105
2150
2055
2066
2187
2255
2071
1790
2019
2084
1929
2066
1961
1895
2000
1958
2121
2179
2116
2116
2006
2055
2055
2045
2116
1922
1924
2013
2090
2163
2019
2045
2121
2069
1998
1974
2184
2187
1990
1953
2079
2126
2019
1979
1990
2084
2134
1971
2111
2202
1977
2006
2042
2037
2076
1979
2006
1985
1898
1893
2027
2213
2063
2055
2195
2019
2045
2100
2100
2137
1953
1937
1998
1985
2121
2171
2042
1885
2045
2121
2003
2174
2168
2011
1961
1937
2071
2029
2048
2153
2048
1940
1872
2058
2095
1869
2058
2061
1977
2181
2234
2289
2168
2029
2063
1872
1990
2171
2055
1961
1916
2024
2074
2087
2111
2105
2129
1987
1971
1992
1937
2090
2090
2021
2082
2129
2129
1916
1940
2048
1966
1992
1961
2118
2179
1977
2092
2021
1950
2121
2011
2021
2084
2000
2116
2111
2029
2066
2100
2037
1964
2071
2027
1943
2000
1969
2066
2200
2168
2053
2032
2095
2011
2079
2155
2040
2074
2037
2006
2066
2021
2000
1945
1969
2074
2016
2105
2166
2103
2158
2137
2084
2016
1977
2006
1956
2021
2003
1992
2084
2032
2071
2076
2008
2024
1937
2048
2076
1966
2048
2016
2053
2132
2042
2034
2116
2129
1932
1982
2153
2024
2069
2121
2121
2231
2040
2021
2095
2032
2087
2016
2076
2116
1911
1895
1940
1977
1948
1982
2087
2013
2058
2092
2071
2118
2019
2034
2090
2071
2045
1924
1974
1985
2008
2166
2163
2184
2158
2158
2137
1985
2040
1990
1898
2071
2006
1985
2137
1966
1869
2032
2126
2111
2013
2016
2069
2058
1971
1979
2197
2095
1898
2071
2163
2029
1937
2076
2116
2024
2045
2045
2168
2139
1977
2105
2129
2087
2063
2037
2129
2042
1906
1940
2027
2111
2011
2006
2029
1914
2000
2029
2129
2216
2016
2074
2045
1911
1995
2061
2176
2158
2021
1966
1990
2011
1945
2116
2105
1940
2063
1948
1977
2095
1995
2189
2069
1958
2092
2040
2111
2045
2071
2202
2163
2124
1948
2061
2150
1877
1971
2163
2147
2006
1845
1998
2061
2000
2082
2116
2100
2008
2061
2142
2037
1937
1916
2061
2103
2092
2168
1998
2029
2029
1843
2124
2192
2058
2058
1937
2027
2000
1919
2050
2189
2289
2069
1956
2034
1982
2055
1974
1971
2134
2016
1990
2100
2050
1961
2006
2032
1977
2024
2037
2066
2040
1979
2158
2239
2105
2121
2139
2116
2074
2008
2069
2087
2142
2055
1885
2063
2027
2000
2113
2037
2132
2053
1882
2000
2008
1961
1940
1966
2006
1908
1987
2087
2045
2116
2079
2087
2202
2139
2037
2006
2061
1990
1953
2111
2153
2108
1961
1990
2087
2032
2166
2147
2050
2105
2013
2058
1979
1880
2021
1995
2000
2008
2111
2237
2053
2016
2105
2168
2184
2058
2019
1893
1869
2003
1906
2024
2174
2029
1974
2066
2105
2105
2145
2019
2016
2268
2118
2050
2137
1877
1914
1977
1958
2076
1990
2016
2027
1966
2050
2063
2121
2084
1974
1945
1987
2092
2027
2074
2234
2116
2040
2082
2084
2145
2134
2021
1974
2095
2090
2032
2105
2074
1990
1945
2003
2069
2021
2069
2103
2063
2066
1974
2095
2137
1798
1961
2189
2069
2037
1992
2095
2076
1911
2024
2121
2121
1985
1922
2066
2063
2013
2063
2111
2111
2040
2061
2058
2019
1950
1927
2076
2079
2092
2208
2079
2061
1977
1877
2013
2063
2129
2129
2105
2142
1932
1964
2100
2082
2100
1969
2008
2024
1874
2034
2132
2145
2082
2027
2145
2042
1901
1987
2087
2113
2058
2095
2118
2103
2040
1964
2197
2239
1877
1958
2118
1948
1853
1919
2134
2132
1979
1990
2050
2118
1948
1971
2181
2129
2074
2013
2055
2147
2108
2092
1971
2116
2221
1932
1877
2055
2053
1937
2024
2163
2074
1995
1935
1992
2048
1982
2066
2084
1948
2011
2150
2137
2027
2061
2200
2184
2105
2090
2092
2087
1922
1919
2055
2053
2084
2024
2024
2142
2040
1979
2021
2082
2032
1940
2032
1916
1893
2048
1964
2024
2069
2058
2189
2153
2063
2032
2129
2108
1961
2137
2192
2063
2006
1956
2074
2095
1935
1990
2066
2069
1966
1950
2210
2208
2050
1998
1974
2034
1945
1924
2105
2137
2016
2024
2192
2160
2055
2024
2034
2105
2037
2087
2126
1929
1940
1985
1990
2113
2134
1998
1922
2061
2066
1943
2132
2189
1982
1919
1945
2074
2092
1974
2042
2113
2016
2037
2187
2181
2087
2029
1966
2132
2163
1987
2087
2087
2053
2121
2024
2111
2076
1843
1866
1974
1998
1924
1992
2171
2129
2124
2066
1977
2013
1992
2006
1969
2011
2087
1948
2021
2076
2019
2145
2160
2132
2200
2187
2037
1940
2055
2139
2121
2024
1969
2100
2045
1971
2092
2108
2092
2040
2006
2006
1956
1935
1877
1908
1982
1958
2040
2040
2121
2300
2163
2097
2223
2095
1964
2050
2118
1985
1911
2003
1990
2040
2076
2058
2137
2090
2079
2076
2019
2048
1998
2027
2006
2027
2184
2079
2024
1995
1945
2037
2058
2048
2034
2074
2071
1998
2103
2163
2139
2061
1977
2079
1979
1882
2032
1956
2034
2168
2042
2066
2042
2040
2095
1979
2061
2137
1937
1906
2134
2179
2024
2074
2121
2048
2003
1964
2090
2048
1945
2090
2027
2008
2011
2050
2034
1843
2029
2103
2008
2116
2058
2126
2116
2021
2174
2092
1987
2097
2029
1940
1992
2053
1937
1985
2250
2179
2108
2029
1977
2197
1958
1929
2231
2024
1945
2027
2048
2050
1977
2087
2137
2103
2055
1969
1964
1922
2034
2100
2027
2090
2016
2013
2082
2013
2045
2008
1964
2069
2071
2013
1937
1990
2042
2048
2195
2113
2016
2058
1995
2158
2210
2129
2129
2021
2013
2000
1990
2034
1979
2013
2087
2108
2071
2084
2084
1953
2045
2053
1935
1950
1882
2011
2027
1943
2168
2237
2221
2150
2006
2050
1985
1932
1961
1998
2126
1985
1927
2008
1950
2116
2155
2134
2273
2184
2100
2016
2040
2132
2087
2066
1924
1992
2097
1922
1945
2042
2105
2100
2063
2124
2105
2079
1898
1890
2113
2008
2013
2048
1943
2021
1932
1856
2045
2139
2229
2171
2129
2189
2082
2079
2016
2053
2181
1969
1914
1966
1924
1953
1966
2084
2095
2021
2118
2050
1992
2029
2082
2095
2048
2095
2042
2032
2037
1958
2069
2045
2063
2187
2050
2090
2113
1987
1995
2006
2079
1990
1843
1956
2040
2116
2132
2166
2145
1964
2090
2108
2021
2100
1990
1990
2032
2011
2071
1987
2006
2063
2063
2124
2111
2118
2008
2024
2145
2037
2045
2016
2016
2061
1937
2042
2129
1977
1971
1974
2013
2019
2066
2134
2011
2011
1987
1906
2126
2192
2126
2069
2000
2055
1985
1977
2108
2074
2076
2069
2097
2187
2129
2095
2166
2192
2092
2063
2045
1885
1885
1916
1927
1872
1835
2008
2071
2100
2155
2087
2121
1998
1940
2111
2066
2084
2105
1977
2032
2058
2090
2155
2100
2055
2058
2016
1971
2132
2155
1948
2069
2066
1966
2084
1995
1919
1932
1971
2100
2092
2184
2113
2108
2231
2024
2011
2108
1990
1898
1887
2071
2076
2000
2011
2050
2166
2058
2040
2247
2118
1974
1945
1935
1966
2040
2105
2003
1953
1995
1961
2011
2076
2176
2103
2019
2181
2111
2024
2134
2084
2055
1935
1977
2126
1927
1908
2069
2042
2063
2016
2139
2226
2095
2050
1974
2032
2124
2027
2095
2042
1974
1945
1990
2195
2155
2011
2024
2040
1992
1880
2095
2216
2071
2095
2147
2158
2032
1845
2024
2137
2027
1914
1958
2092
2011
1987
2074
2048
2103
2053
2129
2229
1964
1817
1908
1977
2066
2087
2147
2045
1956
2042
2097
2160
2124
2027
2095
2071
1940
1838
1880
1961
2042
2145
2181
2237
2163
1958
2076
2097
2032
2097
2113
2111
1956
1901
2021
1990
2082
2179
2192
1990
1796
1979
2082
2058
2124
2118
2111
2055
2066
2019
1992
2097
2032
1950
2032
2082
1995
1775
2008
2244
2126
2050
1974
2095
2084
1861
2111
2200
2008
1969
2032
2087
1987
1924
2040
2108
2163
2100
2087
2116
2058
1929
1919
2121
2129
2008
2108
2074
2069
1974
1843
2105
2208
2082
2121
2055
2016
1987
2053
2076
2048
2108
2069
2045
1924
1824
2053
2021
2066
2174
2092
2124
1979
1987
2187
2079
2155
2053
1874
2029
2050
2055
2069
1979
2027
2042
2071
2011
2032
2076
1953
1945
2042
2150
2208
2058
2034
2069
2082
2029
2006
2116
2048
1977
2040
1987
2097
2079
2034
2084
2042
2071
2037
1979
1979
1932
2087
2079
2105
2281
2189
2066
2042
2019
2105
2066
1985
1953
1922
1885
1927
2011
2053
2058
2069
2045
2087
2105
2121
2079
2021
2079
2063
1977
2013
2024
2032
2024
2213
2195
2053
2276
2142
1908
2006
1916
1966
1958
1845
1998
2045
1940
1995
2111
2147
2037
2034
2087
2108
2063
1977
2029
2082
1922
1985
2216
2247
2084
2050
2090
2095
2021
2042
2305
2200
1866
2019
1950
1788
1987
2019
2000
1987
1985
2145
2076
2097
2121
2027
2032
1985
2087
2132
2084
2239
1966
1788
2066
2181
2134
2055
2087
2134
1893
1859
2124
2189
2003
2071
2105
1911
1979
1992
1958
2076
2016
2087
2055
1969
2061
2121
2113
1971
2003
2082
1935
2208
2263
2011
2066
2027
2069
2145
2063
2066
1950
2003
2021
1956
2021
1982
1964
1956
1977
2126
2160
2129
2013
2103
2137
1961
2063
2139
2137
2121
1990
1990
1919
2032
2134
2000
2108
2118
2024
2111
1977
2069
2129
1927
2029
2019
1969
2040
1924
2016
2087
2055
2111
2118
2103
2095
2084
2079
2066
2095
2076
2024
1977
1958
1935
2095
2189
1987
1990
2074
1990
2019
1932
2019
2137
1958
1990
2066
2034
2147
1977
1979
2082
1990
2132
2058
1961
2087
1998
2042
2032
2090
2258
2134
1995
2019
2055
2103
2066
1953
1950
2176
2126
2063
2150
2084
2055
2006
1958
2092
2087
2027
1987
2058
2055
1953
2158
2063
1864
2160
2006
1840
2003
2008
2195
2176
2032
2158
2055
1974
1971
2079
2045
1895
2121
2082
1932
2118
2147
2124
2037
2069
2063
1956
2027
1987
2021
2050
2016
2153
1995
1948
2063
2066
2084
2074
2176
2145
1969
2050
2069
2171
2142
1853
1824
1914
2050
2116
2087
2163
2084
2097
2000
1956
2231
2055
1893
2053
1937
2029
2179
2074
2021
2045
1979
1935
2011
1979
2063
2184
1916
1937
2153
2087
2163
2200
2084
2181
2176
2037
1958
1919
2000
2137
1971
1882
2166
2092
1822
2029
2092
2074
2163
2097
2048
1974
1908
1992
1998
2063
2111
2184
2069
1958
2150
2116
1974
1937
1877
2034
2084
2076
2103
2040
2050
2050
2021
2087
2118
2142
2113
2134
2113
1977
1998
2084
1974
1956
2045
2079
2000
2008
2092
2111
2069
1974
2045
2103
2069
2129
1969
1935
2048
1958
2095
2213
2126
2160
1945
1887
2024
1992
2027
2069
2063
2006
2006
2171
2034
1908
2055
2087
1998
2087
2158
2134
2053
1990
2079
2126
1950
2029
2048
1861
2013
2029
1990
2145
2079
2150
2111
2063
2179
2066
2027
2058
2090
2053
1935
2181
2061
1769
1948
2045
2034
1974
2042
2213
1929
1856
2063
2032
1992
2071
2147
2158
2055
2021
2061
2095
2032
2147
2234
2050
2058
2058
1948
2050
2113
2092
1990
2097
2108
1827
2066
2166
1966
2058
1974
2100
2079
1869
2087
2082
1971
1961
1982
2192
2113
2008
2016
2008
2087
2082
2024
2066
2058
1922
1914
2176
2213
2103
2058
2129
2153
2037
2124
2153
1929
1943
2000
2079
2027
1830
1992
1943
1824
2061
2069
2205
2121
1937
2147
2063
2058
2147
1974
2097
2076
1969
2084
2126
2134
2032
1990
2076
2103
2139
1990
1948
2037
2045
2029
2011
2016
1969
1966
2032
2016
2150
2113
2040
2076
2000
2063
2108
2079
2108
2069
2147
1998
1851
2074
2108
2016
2129
2150
2053
2013
2076
2032
2013
2082
2061
2082
2037
1977
2061
1985
1961
2011
2034
2021
2000
2103
2095
2013
2103
2071
2069
2058
2013
2100
2034
1953
2013
2032
2116
2045
2053
2166
2090
2019
2037
2069
2048
2048
2097
1969
1995
2053
2024
2063
2055
2113
2116
1843
1890
2082
1987
1985
2058
2053
2040
1995
2029
2087
2074
2032
2168
2113
2029
2176
2029
2037
2153
1987
2129
2069
1929
2061
2063
2118
2103
2040
2006
1966
2147
1982
1948
2121
1964
1929
1995
2053
2092
1950
2006
2129
2137
2040
1992
1961
1958
2105
2244
2218
2066
1950
2079
2045
2003
2139
2118
2061
1969
1945
2150
2100
2021
2040
2032
2061
2008
2050
2092
2024
2037
2011
2063
2003
1950
2126
2082
1914
1895
1948
2139
2016
1964
2155
2126
2061
2006
2063
2171
2137
2189
2090
2011
2092
2048
1982
1945
1964
2132
2084
2016
2069
2063
2045
2079
2095
2090
2095
2008
1838
1908
2084
2174
2006
1940
2108
2027
1977
2108
2097
2079
1979
2034
2076
1940
1985
2066
2071
2103
2042
2029
1995
2011
2126
2139
2142
2124
2040
1950
1877
2108
2076
1924
2074
2066
2050
2111
2076
2171
2116
1977
2050
2142
1992
2008
2150
2013
1966
2053
2074
2079
1932
2045
2197
2037
2042
2027
1940
2040
1966
2016
2061
1985
1995
1914
2032
2137
1995
2082
2090
2139
2200
2063
2129
2074
1901
2050
2111
2055
2016
2069
2050
2003
2058
2069
2079
2042
2071
2108
1969
2034
2011
1990
2066
1974
2006
1958
1990
2168
2066
2116
2032
1985
2069
1922
2079
2132
1945
2158
2192
2105
2084
2042
2116
2095
2024
2105
2040
1937
1927
2040
2126
2016
1964
2092
2111
2037
2050
1979
1916
2055
1998
2013
2134
2066
2063
2003
2095
2210
1964
2019
2074
2061
2160
1966
2006
2168
2000
2058
2074
1969
2040
2069
2071
2008
1945
1971
1935
2013
2034
2084
2111
2006
1890
2011
2216
2097
2074
2195
2087
2071
1948
2008
2208
2066
2082
2061
1982
2118
1948
1977
2040
1948
2113
2061
1979
2092
2050
2008
2011
2139
2113
2008
2063
2011
2074
2103
1935
2074
2116
2061
2189
2139
1977
2013
2034
2016
2055
2095
2027
1950
1927
2029
2076
1974
2032
2147
2076
1979
1961
2192
2137
1935
2100
2124
2048
1940
1840
2076
2053
1958
2058
2090
2160
2087
1945
2013
2076
2150
2079
2066
2184
2084
1985
2024
2087
2139
2069
2040
1995
1974
1992
1979
2048
2037
2092
2171
2063
2029
2000
2066
2071
2037
2129
2042
2071
2074
1864
2024
2061
1964
2034
2055
2153
2097
1953
1964
1990
2113
2103
2126
2090
1914
2040
2092
2016
2113
2137
2097
1995
2011
1979
1974
2118
2000
1992
2121
2071
2137
2019
2003
2053
1908
1893
1922
2124
2189
1992
2121
2129
2061
2103
2111
2174
2048
2006
2124
2024
2042
2003
1987
2079
2019
2027
2082
2118
2118
1985
2042
2079
2053
2063
1971
1969
1977
1916
1987
2129
2113
1964
2050
2095
2069
2074
2008
2076
2016
1864
2058
2092
2069
2111
1982
2097
2250
2006
1940
2103
2111
1966
2027
2126
2029
1974
1885
1929
2108
1937
1992
2202
2176
2139
2095
2192
2111
1971
2100
2097
2213
2147
1969
2079
2066
2024
2021
2021
2055
1953
1964
1903
1914
1985
1945
2105
2108
2058
2150
2021
1998
1943
1987
2189
2053
1979
2071
2097
2084
1922
1919
2071
2134
2008
1990
2150
2116
2061
2063
2139
2321
2071
1916
2092
2011
1992
2003
2013
2168
1956
1851
1971
2034
2016
1982
2166
2195
2000
1998
2050
2111
2055
1958
2048
2181
2097
2008
2108
2116
1958
2000
2076
2126
2132
2003
2000
2042
2029
2087
2045
2126
2100
1961
2011
1982
1950
1948
1945
2029
1992
2079
2092
2084
2163
2013
2021
2116
2019
2105
2111
2095
2113
2000
2021
2116
2147
2069
1945
2042
2032
2021
2034
1977
2053
2003
1940
1998
2032
2100
1995
2024
2040
1998
2061
2042
2108
2055
2076
2237
2008
1990
2160
2100
1998
1898
2055
2171
1943
1956
2050
2045
2034
2084
2174
2095
2029
1990
1977
2095
2029
1974
2053
2129
2066
2032
2179
2142
1998
2013
1990
2139
2048
1835
2095
2158
1958
2055
2132
2155
2082
1990
1974
2024
2058
1982
1992
2042
1971
1979
2024
2121
2132
2019
2095
2142
2055
2092
2032
2016
2121
2097
2029
2129
2137
1916
1919
2053
2003
2027
1979
2137
2168
1924
1987
1956
1898
2074
2032
2132
2100
1935
2079
2181
2158
2100
2071
2095
1977
1977
2011
2103
2058
1866
1956
2126
2139
2013
1974
2158
2000
1901
2074
2132
2118
2079
2090
2124
2055
2079
1987
2013
2132
2013
2029
2082
2097
2084
1866
2116
2176
1924
1985
1940
1937
1935
1945
2221
2179
2048
2037
1998
1940
2037
2163
2108
2092
2061
1995
2011
1956
2116
2095
1982
2103
2063
2037
2163
2202
2174
1956
2108
2160
1864
1964
1977
1843
1919
1906
2166
2202
1974
2076
2181
2132
2040
2063
2113
2013
2071
2082
2124
2111
1953
1971
2058
2097
2095
1919
1924
2027
2045
2040
2090
2181
2139
2021
2024
1985
1971
1906
2006
2087
1956
2063
2037
1853
2040
2097
2181
2210
2034
2076
2111
2050
2076
2069
2163
2118
2000
1987
2084
2118
1956
1885
2034
2132
2071
1990
2137
2079
1922
1932
2042
2095
1927
1935
2095
2021
2055
2000
2037
2221
2090
2048
2171
2129
2006
1872
2087
2108
1971
2116
2103
2163
2150
1958
2079
2066
2084
2069
2024
2048
1961
2053
2048
1950
2050
1916
1911
2003
2011
1953
1966
2063
1932
1956
2163
2103
2121
2076
2176
2292
2058
2027
2111
2087
2097
1943
2066
2132
1911
1956
2040
2053
2121
2079
2124
2166
2053
1848
1958
2029
1914
2021
2069
2074
2082
1906
2063
2124
2006
2090
2147
2168
2092
2003
2132
2040
1979
2095
2118
2066
1950
1979
2061
1950
1995
2032
2084
2105
1974
2032
2042
1950
1998
1982
2134
2139
2037
2071
2027
2034
2040
2011
2063
2000
2034
2021
2124
2158
2000
2050
2095
2158
2179
1961
1974
2024
2021
1958
1935
2058
1998
1922
2013
2079
2137
1990
2013
2132
2153
2205
1977
1929
2097
2045
2118
2053
2042
2108
1982
2058
2189
2184
2100
1966
2090
2045
1974
1995
2013
2090
1945
1982
2113
2008
2074
1995
1998
2006
1971
2129
2097
2074
2048
1956
2069
2029
2024
2097
2029
1948
1982
2063
2063
2042
2061
2029
2197
2142
1974
2126
2103
2011
2000
1961
2095
2055
2027
2058
2079
2063
1950
1979
2042
2082
2069
1977
2171
2158
1992
2071
2037
2006
2069
1977
2074
2121
1977
1964
2103
2058
1956
2124
2174
2021
2032
1966
1977
2063
2092
2171
2100
2000
2003
2003
2113
2016
1953
2021
1948
2037
2134
2100
2055
1974
2000
1948
2113
2229
2006
2027
2053
1998
2150
2132
2134
2134
1977
1919
1985
2011
2032
2142
2121
2027
2113
2113
2079
1985
1914
2076
2029
1940
2082
2082
2037
1948
2029
2016
1916
2103
2008
2037
2176
2019
2084
1982
1950
2126
2108
2063
1961
1945
1998
1953
2116
2189
2205
2289
2105
2055
2113
2071
2045
1919
2027
2090
1998
2011
2037
2103
2092
2071
2003
1961
2058
1887
1916
2118
2076
2076
2037
2061
2103
1985
2100
2095
2029
2034
1927
2013
2040
2034
2139
2113
2090
1971
2034
2076
1958
2111
2095
1987
2090
2037
2040
2108
2019
1971
2008
2016
2013
2079
2139
2095
2163
2053
2021
2184
2076
2037
2029
1977
2053
2013
2053
2105
2100
2032
1987
2095
2006
2006
2061
1801
1922
1985
1919
2192
2129
2006
2058
1964
1974
2032
2084
2150
2197
2048
1992
2179
2063
2000
2100
1987
2058
2069
2008
2092
2048
2019
2011
2003
2055
2027
2116
1985
1990
2116
1919
2121
2153
1974
2202
2058
1969
2061
1974
1985
2011
2024
2058
2139
2137
2021
2058
2045
2024
2066
2013
2082
2187
2145
2008
1982
2087
1974
1927
2097
2063
1906
1843
2000
2126
2087
2158
2053
2016
2055
1961
2179
2189
1922
2021
2124
2116
2061
2084
2058
1982
2111
2040
2011
2103
1903
1937
2095
2087
2108
2090
2079
1998
1927
2045
2097
2034
1985
2082
2108
1995
1977
2006
2145
2137
1914
2082
2139
2006
2053
2008
2129
2142
1966
2037
2040
2084
1992
1914
2111
2011
1953
2021
2027
2147
2040
2019
2092
2042
2063
2011
2008
2011
1990
2108
2145
2202
2134
1990
2040
1987
2019
2082
2076
2061
1890
1995
2124
2029
2071
2084
2071
2019
1966
2011
1964
2050
1958
1911
2226
2082
2008
2168
1990
2071
2079
2008
2137
2158
2050
1945
2100
2108
1998
2145
2063
1953
1985
1943
2008
1992
2032
2118
2029
2139
2134
2147
2200
1956
1969
2006
1995
2082
2019
2063
1990
1950
2011
2048
2247
2174
2027
1992
1885
1985
2021
2082
2132
2011
2040
2029
2011
2016
2024
2147
2021
2048
2158
2016
2105
2137
2069
2111
2097
2082
1958
1940
2024
2021
2006
1964
2108
2192
1977
1940
1987
2013
2058
2092
2168
2034
1961
2034
1987
2063
2100
2105
2079
2019
2063
2042
2092
2108
2048
2168
2116
2069
2027
1845
1982
2079
2003
2071
2105
2105
1924
1861
1940
1914
2074
2111
2103
2121
1950
2019
2048
2021
2197
2137
2071
2050
1953
1985
1998
2050
2082
2126
2174
2150
2103
1922
1992
2100
2011
2116
2087
2013
1943
1885
2058
1987
1990
2155
2029
2095
2066
2003
2087
1987
2118
2153
2048
2129
2048
2045
2034
2006
2142
2084
2011
1990
2058
2019
1819
2003
2111
2100
2153
2024
2021
2029
2003
2058
2053
2163
2111
2032
2003
1945
2058
1990
2021
2158
2055
2155
2095
1979
2160
2145
2111
2090
2019
2116
2069
1995
1922
1924
2063
1893
1943
2163
2011
1935
1956
1969
2045
2100
2042
2045
2124
1998
2061
2158
2055
2160
2084
2061
2108
1943
2071
2069
1935
2087
2037
1964
2042
2050
2037
2042
2105
2084
1979
1982
1953
1990
2029
2003
2142
2126
2061
2139
2011
1979
2090
2055
2032
2137
2116
2019
2050
2019
2048
2118
2074
2116
2074
2074
2000
1927
2108
2037
2021
2134
1911
1971
1966
1751
2019
2208
2087
2011
2076
2187
2021
2003
2116
2055
2097
2019
1990
2166
2095
2008
2042
2118
2176
2166
2108
1964
1964
1950
1937
2050
2032
2113
2013
1817
1987
1998
1995
2090
2082
2121
2097
2137
2092
2000
2108
2053
2090
2137
2021
2150
2029
1895
2016
1971
2095
2074
1882
1971
2013
2013
2092
2103
2116
2189
2071
1924
2134
2166
1977
2037
2008
1971
2066
2118
2097
2032
2121
2055
1935
1990
1998
2129
2095
1901
2016
2069
2040
2016
2000
2090
2024
2013
2013
2074
2176
2008
2021
2095
2066
2126
2027
2084
2040
1835
2027
2132
2097
2029
1969
2137
2045
1953
2048
2108
2074
1908
1982
2113
2076
2066
2058
2126
2108
1995
2027
2055
2103
2132
2076
2090
1987
1987
2095
2097
2124
1974
1958
2071
2048
2090
2053
2042
2029
1945
2045
2113
2129
1953
1811
2045
2024
1987
2132
2121
2124
2006
1969
2050
1974
1948
2003
2139
2160
2040
2063
2082
2126
2139
2071
2160
2142
1982
1961
2048
2095
1945
1856
2019
2095
1987
1961
2187
2160
1919
2053
2213
2116
1979
2021
2189
2066
1916
1971
2055
2097
1982
2058
2166
1982
1940
1969
2076
2137
2013
2008
1987
2058
2050
1982
2174
2116
1961
1977
2027
2134
1998
1992
2202
2100
1979
1990
2061
2058
1906
2055
2195
2108
2074
2066
2113
2006
1969
2053
1966
2040
2079
2016
2108
2061
2011
2027
2058
2126
2045
2055
2111
2061
1977
1893
2132
2231
1995
2058
2195
2116
1932
1945
2150
2129
1937
1895
2069
2045
1801
1893
2008
1992
1998
2048
2205
2100
1987
2108
2082
2071
2013
2061
2189
2013
2019
2097
2092
2139
1998
2000
2079
2011
1961
1977
2153
2124
1966
2092
2074
2034
2021
1940
2029
2066
2019
2008
2082
2126
2021
2100
2118
2029
2084
2032
2063
2147
1977
1945
2155
2250
2042
1998
2061
1893
1945
2074
2108
2179
1995
1964
2074
2045
2027
2050
2050
1919
2013
2134
2029
2079
2037
2069
2116
1880
1887
1998
1990
1990
1979
2087
2168
2129
2087
2066
2113
2063
2037
2179
2158
2097
2048
1995
2092
2103
2103
2147
2013
1940
1969
1992
2008
2021
2061
2142
2108
1914
1945
2074
1992
2003
2019
1979
1956
2024
2108
1985
1943
2013
2008
2055
2084
2147
2155
2021
2032
2113
2129
2097
2000
2092
2090
2058
2208
2045
2000
2163
2034
1977
1927
1969
2024
1914
1961
1979
2019
2166
2150
2074
1977
2000
2019
2027
2163
2187
2147
1979
1922
2142
2126
2092
2008
1861
2013
2008
1935
2053
2032
2071
2092
2134
2250
2145
2042
2042
2092
2095
1964
2079
2084
1843
1872
2061
2048
1882
2021
2160
2006
2053
2071
2066
2118
2084
2103
2016
2008
2116
2084
2069
1992
2024
2053
1908
1985
2100
2037
2000
2063
2179
2092
2137
2163
1961
2045
2155
2137
2045
1895
1977
1987
1977
2050
2076
2121
2055
1995
2037
2076
2118
2021
2000
2079
2055
1995
1887
1935
2016
1995
2074
2111
2171
2121
2087
2174
2027
1992
2139
2076
2019
1982
2032
2048
1935
2003
2100
2100
2040
1969
2082
2016
1950
2082
2003
2061
2116
2003
2095
2071
2027
2090
2097
2100
2027
2029
2069
2063
2042
1956
2029
2048
1974
1929
1937
2053
1995
1982
2092
2139
2234
2095
2061
2195
2082
2029
1964
2003
2218
2042
2019
2103
1945
2013
2055
2103
2129
1992
2034
2050
2053
2021
1966
2034
2000
2008
2111
2139
2029
1943
1990
2076
2192
2100
2029
2113
2024
1977
1950
1924
2069
2108
2132
2223
2132
2066
2006
1990
2153
2061
2029
2069
1937
1956
1961
2055
2055
1937
2050
2058
1979
1961
1956
2121
2147
2055
2097
2150
2024
1861
1969
2013
1998
2050
2055
2129
2100
2050
2040
2055
2174
2087
2066
2116
2000
2003
2006
2050
2197
2124
2071
2016
1958
2016
1940
2024
2084
2011
2097
2092
2053
1945
1969
2118
2050
2090
2150
2092
2074
2011
2027
2103
2082
1974
2000
2142
1992
1887
2000
1966
2029
2095
2153
2129
1914
2008
2008
1982
2205
2037
2055
2202
2003
2027
2042
2027
2092
2027
2105
2155
2055
1966
1956
2097
2113
2061
2061
2040
1992
1922
2042
2071
1992
2045
1945
1998
2124
2069
2074
2040
2118
2103
2003
2142
2069
1895
1982
2032
2053
2050
2079
2079
2029
2074
2071
2113
2053
1948
2021
1961
1998
2066
2027
2105
2053
2034
2053
2016
2111
2063
2118
2176
2016
2042
2050
2082
2145
2027
2132
2158
1948
1945
2100
2155
1948
1943
2116
2053
1998
1916
2000
2037
1911
1969
2008
2118
2082
1919
2139
2113
1979
2071
2076
2166
2184
2079
2055
2137
2124
1940
2163
2181
1919
2006
1987
2069
2034
1893
2090
1995
1992
2061
1935
2076
2090
2082
2069
1903
2048
2048
1985
2142
2142
2058
1937
1966
2121
2032
2074
2205
2134
1979
2027
2174
1974
1843
2048
2202
2160
2003
2126
2069
1864
2048
2063
2092
2126
1919
2016
1979
1961
2071
1998
2095
2082
2100
2239
2082
2040
1948
1935
2202
2145
2048
2090
2037
1958
1838
1969
2095
2027
1935
2037
2187
2034
1990
2042
2069
2174
1979
1979
2090
1950
1982
2042
2121
2076
1922
2108
2147
2103
2108
1995
2132
2071
1992
2239
2187
2008
1890
1964
2100
1943
1898
2071
1987
1953
2076
2092
2126
2147
2027
2063
2087
2011
2050
2037
2053
2108
2034
2105
2084
1971
2063
2076
2126
2024
1851
2197
2134
1906
2090
2040
2076
1979
1882
2142
2000
1943
1977
1943
2195
2166
1990
1987
1977
2124
2129
2092
2229
2084
1895
2095
2192
2074
2076
2066
1901
1945
2021
2116
2074
1814
2000
2163
2071
2048
2003
2210
2079
1974
2126
1901
1990
2063
1874
2111
2121
1916
1935
2079
2276
2195
2066
2079
2008
2058
2008
2037
2118
1971
1987
2139
2121
1998
2003
2118
2063
2053
2040
2040
2050
2019
2058
2006
2105
2137
1840
2040
2137
1950
2048
2024
2181
2213
1971
2061
2021
1969
1922
2016
2155
1898
1929
2129
2045
2040
2090
2153
2016
1901
2040
2129
2074
2092
2097
1985
1992
2158
2079
2027
2050
1919
1943
2003
2053
2208
2063
2084
2158
2082
2124
2074
2071
2016
1940
2118
2076
1985
2016
2021
2021
2037
2076
2034
2024
2134
1958
1901
2092
2137
2058
2024
2074
2016
1948
1979
2034
2247
2087
1932
2063
1882
1958
2231
2076
2145
2158
1953
1945
2000
2074
2066
2011
2032
2000
1998
2071
2176
2087
2029
2105
2134
2103
2076
2142
2103
1935
2040
2092
2097
2105
2021
2006
1940
1885
1979
1948
2013
2113
2069
2079
2129
2168
2097
1916
2013
2016
2008
2069
2016
2048
1998
1974
2087
2055
2027
1958
2071
2087
1961
2132
2145
1971
1982
2050
2145
2045
2032
2040
2027
2103
1890
1956
2184
2006
2095
2155
2050
2084
2071
2040
2055
2171
2084
1966
2195
2040
1911
2082
1966
2021
2116
2063
2150
2069
1992
1958
2032
2079
1998
2011
2006
2069
2040
1995
2168
2048
2029
2058
1961
2079
1971
1943
2129
2021
2032
2105
2116
2055
1985
2079
2100
2048
1974
1990
2184
2042
1922
2079
2092
2021
1948
2063
2265
2082
1919
1982
2100
2027
1924
2082
2213
2108
2008
2021
2124
2055
2050
2134
2160
2158
2029
1943
1985
1940
2013
2087
2137
2021
1887
2048
2116
2045
2016
2003
2195
2111
1890
2058
2179
2016
1914
2016
2187
2032
1895
1974
2071
2121
2113
2103
1953
1937
2087
2034
2061
2032
2048
2029
1953
2050
2013
2045
2147
1998
2053
2100
2163
2105
1824
2034
2234
2016
2032
2097
2179
2069
1866
2058
2187
2053
2040
2071
2061
2011
2029
1979
2013
2034
1940
2003
1998
2000
2050
1950
2048
2084
2069
2111
2095
2118
2042
1969
2027
2087
2124
1961
2082
2210
1987
2100
2189
1995
2034
2008
2058
2105
2045
2066
2034
1979
1982
2090
2129
1937
2021
2097
1990
1998
1985
1992
2040
2079
2139
2082
2118
2055
1982
2063
2037
2024
1977
1950
2092
2053
2048
2090
2097
2058
2016
2126
2132
2063
2063
1911
1906
1966
2008
2145
2137
2171
2160
1958
2037
2058
2027
2048
2032
2105
2071
2021
2076
2084
2055
2076
2126
1982
2006
2019
1864
2045
2168
2082
2069
1911
2050
2092
1906
2019
2040
2016
2024
2006
2142
2108
2118
2063
1940
2040
2055
2013
1969
1956
2134
2087
2011
2087
2092
2084
2113
2129
2032
2076
2155
1935
2027
2158
2058
2029
1895
1985
2040
1922
2105
2100
2063
2037
2066
2179
2013
2003
2100
2029
2092
2097
2132
2108
1990
1966
1977
2021
2076
2024
1987
2011
2050
1898
2016
2218
2013
2006
2111
2008
2042
2040
2158
2129
1964
2058
2069
2024
1958
1950
2116
1979
2021
2134
2108
2179
2053
2090
2171
1995
2024
1922
1961
2139
2037
2003
2111
2111
2037
2027
2087
2045
2029
1982
2011
2097
2013
2019
2061
2037
2124
2029
2037
2095
2029
2061
2124
2184
2006
1885
2037
1874
1971
2076
1977
2176
2011
1974
2231
2069
2111
2040
1940
2129
2032
1914
1958
2021
2084
2037
2171
2239
2121
1995
1914
2024
2066
1995
2084
2066
1974
1948
2058
2076
2029
2061
2027
2084
2000
1785
2045
2129
2063
2074
2032
2231
2153
1964
2090
2092
2150
2061
1977
2084
2058
2027
1937
1927
2174
2187
2082
2076
2069
2032
2011
2003
1998
2050
2082
2097
2016
1796
1966
2108
2019
2100
2116
2124
2013
1830
2063
2124
2100
2184
2074
2134
2126
2034
2079
1987
2069
2006
1987
2050
1832
1919
2069
2050
2100
1998
2176
2286
1927
1790
2048
2134
2003
2006
2134
2129
2008
1927
2103
2195
2116
2103
1982
1992
2113
1914
1901
2008
2069
2124
2042
2103
2087
1935
1974
2032
2176
2087
2124
2255
1872
1798
1990
1961
2132
2139
2139
2166
1979
1914
2019
2139
2126
2040
2040
1985
2076
1982
1916
2113
2090
2095
2137
2105
2084
1869
1935
2055
1966
1969
2066
2195
2027
1906
2105
2118
2181
2108
2139
2313
2061
1969
2048
2008
2116
2066
2008
1990
2024
2027
1977
1998
1929
1961
1979
1882
2045
2087
2079
2134
1985
1979
2202
2208
2053
1943
2034
2045
1985
2076
2134
2126
2040
2000
2126
2126
2147
2069
1911
1937
2013
2024
1971
2045
2147
1974
1964
2006
2074
2074
1971
2176
2116
1901
2124
2189
2124
2074
2006
2053
2032
2037
2134
2103
2055
1932
1914
1950
1995
2103
1998
2006
2208
2071
1961
2034
2069
2034
1971
2003
2087
2027
1958
2024
2082
2008
2074
2097
2100
2142
2013
2097
2024
1916
2213
2090
2029
2174
2019
1990
1995
1937
1971
2063
2168
2037
2095
2155
1982
2016
2029
2032
2092
1953
1987
2082
2058
1985
2029
2171
2108
2087
2126
2040
2032
1977
2040
2100
2066
2071
1919
1924
2055
1953
1998
2103
2163
2061
1971
2129
2055
1964
2045
2069
2179
1958
1940
2166
2019
1979
2097
2189
2202
1977
2000
2084
1998
2000
2061
2108
2032
1953
2008
1998
2024
1982
1950
2053
2118
2074
2121
2166
2050
2006
2024
1935
2153
2155
1932
2116
2087
1922
2016
2090
2265
2200
2013
2045
2034
1964
1974
2079
2132
1985
2000
1990
1869
1893
1958
2087
2105
2024
2153
2142
2027
2021
2158
2181
2124
2116
2066
2069
1987
1885
1985
1992
2113
2092
1971
2021
1911
1958
2092
2003
2103
2087
2045
2066
1974
2066
2048
1977
2071
2003
2124
2137
1964
1974
1956
2042
2132
2050
2129
2184
2092
2016
2066
2129
2121
2074
1992
2066
2069
1908
2040
2069
2003
2029
2003
2095
2092
2042
2134
2055
2034
1985
2013
2147
2092
2042
1979
1974
2108
2029
2021
2037
2003
2016
1961
2032
2205
2113
1945
1914
2061
2100
2066
2066
2021
2027
1995
2016
2008
1982
2205
2134
2019
2058
1987
2024
2008
1974
2121
2121
2055
1964
2029
2171
2071
2042
2027
1985
2197
2155
2021
2029
1937
1969
2071
2076
2058
2032
2087
2032
2058
2027
1977
2134
2037
1969
2103
2029
1961
1914
2053
2139
2142
2129
1969
2058
2153
2090
2069
1890
1964
2082
2000
1977
1961
2116
2168
1992
2063
2108
2076
1987
1969
2092
2090
2053
1987
2016
2147
2034
2053
2063
2069
2195
2079
2050
2040
1866
1948
2042
1990
1937
2061
2118
2008
1987
1932
2013
2150
2027
2087
2160
2111
2034
1940
2053
2116
2126
2134
2024
2126
2071
1979
2037
2019
2160
2082
1932
2097
1992
2013
2105
1943
1995
2108
2037
1971
2058
2087
1924
2061
2163
2058
2134
2113
2058
2145
2113
2032
1961
2053
2021
1914
1966
2016
2050
1935
1882
2061
2061
2045
2050
2084
2147
2008
1998
2179
2139
2113
2116
2040
2024
2097
2145
2034
1979
2037
2003
2045
2074
2069
1995
1958
2048
1992
2037
2202
2100
2063
2034
1971
2016
1971
1893
2027
2168
2050
1974
2076
2042
2050
2079
2076
2055
1987
2066
2050
1940
2074
2121
2150
2160
2058
2111
2129
2034
1916
1950
2168
2021
1903
2032
2013
2037
1911
1819
2105
2124
2024
2034
2113
2095
2019
2179
2134
2048
2087
1966
2084
2116
2003
2032
2097
2137
2034
2019
2121
2087
1987
1874
2071
2142
1877
1950
2090
2108
2061
1887
2066
2097
1958
2053
2048
2071
2040
2013
2150
2019
1971
2048
2082
2048
2027
2153
2105
2045
2108
2050
2155
2105
1964
2129
2160
1995
1922
1995
2029
1985
2040
1945
2079
2195
1895
2029
2142
1866
1943
2063
2063
2074
2048
1964
1943
2063
2032
2069
2276
2179
2118
2124
2092
2058
1956
2011
2095
2118
2124
2003
2097
2029
1793
1914
2061
2090
2076
2006
2027
1985
1945
1966
2100
2142
1958
1982
2150
2139
2013
1932
2063
2084
2040
2187
2318
2226
1893
1908
2050
1851
2032
2163
2042
2097
2013
2069
2160
2027
2074
2145
2142
1948
1908
2021
1887
1922
2006
2048
2155
2061
2037
1974
2008
2132
2050
2045
2074
2066
2092
2006
2103
2163
2129
2134
2021
2024
2063
1974
1924
1922
2090
2076
2008
1966
1974
2069
1874
2003
2237
2008
2118
2139
2069
2139
2040
2142
2163
1987
2139
2137
1948
1927
1969
1982
2016
2074
2061
2053
2055
1992
2042
2006
2055
2069
1985
2113
2145
1992
2013
2029
2032
2045
2103
2155
2008
1964
2100
2139
2108
1937
2076
2116
1922
2042
2082
2037
2032
1950
2034
1982
1948
2027
1990
2050
2090
2058
2097
2034
2087
2142
2160
2223
2087
1977
2134
2166
1887
1814
2071
2042
2055
2027
2027
2134
1937
1948
2116
2037
2137
2048
2013
2074
2003
2116
1966
1882
2171
2121
2087
2071
1987
1956
2024
2137
2029
2045
2179
2006
1945
2027
2024
2019
1998
2008
2103
2108
2034
1974
2029
2016
2050
2092
2055
2076
2016
2024
2082
2034
2118
2003
2087
2210
1971
2040
2113
1971
2019
2013
2103
2087
1979
1995
1982
1974
2040
2063
2021
2063
2134
1990
2037
2100
2082
2116
2087
2174
2034
1798
2076
2108
2032
2055
2055
2139
1956
1856
2113
2097
2061
2061
2079
2113
2074
2061
1961
1964
2200
2103
1903
2011
2071
1895
1916
2084
2100
2053
2008
2048
2168
2029
2029
2097
1985
2021
2053
2095
2147
2037
2108
2055
2040
2195
2092
2034
2055
2006
2029
1982
2032
1995
2000
2084
1992
2058
2160
2105
2082
1992
2019
2006
2024
2105
2082
2137
2063
1932
2019
2027
2092
2045
1969
2003
1987
2045
2000
2003
2076
1916
2013
2074
2050
2048
1895
2003
2095
2013
2113
2084
2218
2132
1998
2200
2100
2019
2076
2061
2132
2013
2019
2042
2019
2029
1966
2032
2087
2034
2021
1956
2003
2016
2076
2163
2176
2092
1906
1990
2118
1977
2048
2058
1958
1922
1985
2153
2029
1906
2121
2174
2103
2032
2116
2155
2013
2074
2103
2087
2150
1945
1898
1974
2013
2003
1903
1929
2100
2111
2013
2021
2155
2116
2024
2050
2184
2208
2076
2076
2116
2011
2087
2006
1916
2087
2034
1985
2053
2034
2021
1969
2160
2134
1940
1992
1935
2011
2118
1982
2108
2126
2016
2040
2090
2124
1945
1916
2055
2003
2129
2069
1961
2048
2040
2040
2079
2100
2029
1956
2063
2058
2108
2118
2134
2147
1987
2000
2040
1945
1969
1937
2082
2108
1990
2158
2166
2061
1992
1885
2066
2003
1998
2113
1956
1969
2034
2021
2087
2137
2205
2126
2076
2029
2082
2118
2013
2095
2105
2029
2027
1911
2013
2050
2006
2116
2055
2129
2244
2034
1979
1961
1964
1998
1945
2040
2069
1919
1932
2000
1992
2055
2168
2032
2008
2118
2034
2126
2171
2019
2092
2034
2066
2276
2216
2084
2011
1958
1953
2016
2142
2003
1893
1893
1908
2034
2100
2155
2108
1956
2087
2082
1974
2082
2121
2053
1977
1995
2040
2040
2126
2071
2061
2029
1956
2021
1990
2084
2124
2013
2176
2184
2208
2040
1859
2111
1969
1929
2118
2003
2066
1859
1903
2166
1961
2095
2158
2013
2153
2024
1932
2027
2061
2061
2045
2176
2129
2006
2095
2045
2084
2092
2069
2197
2108
1919
1964
2071
1956
1922
2181
2132
2019
1937
1937
2116
1911
1914
2202
2111
2118
2000
1985
2160
1990
2079
2176
2087
2105
1977
2016
2090
2082
2058
2019
2142
2087
1987
2079
2011
1985
1987
1995
2126
2063
1859
1898
2032
1969
1969
2184
2129
2016
2013
1940
2024
2066
2061
2124
2105
2087
1901
1987
2163
2027
2126
2171
2145
2153
1866
1977
2153
2006
2013
2150
2258
2032
1866
2071
2048
1971
2021
2040
2097
2074
1966
2011
2090
1985
2000
2226
2124
2076
2129
1914
1961
2045
2063
2231
2139
2027
1998
2040
2082
1950
2045
2087
1911
1940
1922
1971
2055
1998
2021
2034
2137
2142
1971
2008
2061
2003
1929
2069
2239
2147
2061
2006
2024
2021
1964
2145
2171
2058
2021
2048
2187
2074
2045
2202
2045
2040
2006
1901
1979
1874
1916
1990
2082
2252
2034
2090
2150
1964
2090
2111
2053
2137
2095
1977
1979
2103
2053
2006
2076
2034
2050
2027
2008
2103
2040
2048
2066
2076
2113
1961
2042
2103
1985
2037
2040
2074
2008
2000
2050
1911
2021
2105
2084
2166
1966
1948
2050
1927
2008
2100
2124
2042
1956
2118
2142
2137
2090
2045
2174
2113
2061
1987
1895
2050
2063
1985
2019
2129
2108
1932
2058
2137
2021
2011
1882
1974
2071
2011
2074
1971
2021
2113
1998
2079
2105
2163
2174
2069
2124
2105
1995
2006
2103
2024
1916
2100
2032
1924
2166
2265
2205
2058
2008
2137
1982
1866
2003
2055
1966
1864
1982
2045
1971
2019
1979
2090
2087
1864
1932
1990
2006
2076
2061
2187
2216
2105
2134
2210
2108
1924
1982
2103
2053
2037
2103
2192
2092
1992
2063
2071
2058
1987
1953
2082
2021
1914
1927
2024
2134
2048
2045
2053
1998
2092
1977
1987
2126
2048
2079
2045
2021
2092
2082
2103
2079
2103
2037
1987
2058
2016
2139
2202
2034
1998
1971
2055
2053
1961
2006
2006
2024
1924
1898
2090
1992
2042
2150
2053
2160
2058
1987
2197
2105
2055
2105
2155
2147
2029
2126
2134
2008
1979
1950
2063
1969
1866
1945
1958
2071
1974
1943
2184
2139
2050
2032
2055
2061
2011
2066
2139
2189
1995
1895
2184
2103
1943
2126
2082
2016
2095
2111
2113
2029
1974
1974
2079
2124
1956
2061
2042
1859
1992
1961
2071
2139
1890
1998
2027
1895
1987
2058
2192
2258
2124
2071
2132
2053
2008
2053
2034
2116
2095
1935
2027
2061
2006
2090
2061
2100
2029
1856
2074
2153
1958
1995
2260
2231
1974
2090
2074
1932
2034
1961
2090
2260
1961
1882
2066
2074
2069
2095
1979
1890
2058
2048
2053
2139
2021
2066
2053
2027
2042
1945
2082
1948
1822
2126
2187
2116
2050
2021
2132
2011
2016
2113
2100
2150
1985
2003
2137
1971
2103
2187
2019
1998
2021
1966
1977
2063
2050
2092
2111
1908
1998
2019
1974
2126
1943
1893
2124
2179
2134
2126
2184
1995
1943
2145
2132
2145
2013
1885
1982
1885
2053
2294
2095
1974
2008
2042
2076
2050
2066
2063
2006
1966
1906
1932
2048
2084
1966
1906
2108
2192
2037
1961
2113
2121
2034
2137
2129
2184
2237
1982
1932
1935
2034
2221
2000
2011
2179
1940
1906
2021
2079
2145
2045
2029
2034
1971
2019
2087
2045
1877
1985
2218
2027
1895
1998
2055
2027
1940
2087
2242
2158
2058
2029
2084
2055
2029
2050
2108
2124
2021
2132
2079
1966
2121
2048
2058
2019
1864
2058
2069
2000
2032
2061
2223
2011
1838
2050
2061
2029
2008
2079
2200
2021
1937
1961
1971
2063
2037
2063
2100
2040
1958
2032
2118
2013
2076
2118
2145
2197
2040
2108
2145
1995
2016
2087
2195
2058
1838
1893
1922
2034
2016
2000
2171
2100
2092
2092
1979
2063
1992
1901
2029
2082
2126
2105
1995
1966
2045
2137
2108
2103
2024
1979
2087
2042
2053
2137
2079
1969
1796
1971
2155
1987
2029
2092
2116
2153
2050
2174
2111
1901
2024
2055
2016
1982
1992
2113
2053
2071
2142
2095
2118
2032
2016
2097
2024
1992
1992
2061
2139
2118
2024
1919
2040
2000
1916
2063
2011
2021
2019
1995
2090
2021
2008
1992
2050
2118
1966
2105
2134
1950
2087
2158
2155
2139
2032
2082
2103
2040
2087
2155
2061
1974
2058
1982
1916
2042
2003
1935
1890
1945
2021
1945
2048
2116
2116
2179
2134
2153
2003
1966
2176
2071
2069
2163
2108
2016
1832
2021
2163
1982
2090
2174
2032
1998
2029
2016
1992
2027
2092
2103
2040
1964
1924
1961
2076
2074
1974
2063
2113
2021
2006
2053
2150
2048
1922
2053
2229
2255
2032
2008
2132
1932
2006
2092
1943
2090
2076
1914
1990
2027
1932
1903
2066
2100
2006
2142
2163
2006
2000
2105
2234
2166
1987
1998
2100
1961
1806
2055
2195
2032
2027
2071
2055
1990
2048
2163
1998
2074
2192
2053
2082
1945
1990
2066
1908
2118
2063
1922
2024
1916
1982
2087
2184
2279
2003
1964
2145
2050
1969
2021
2108
2129
2055
1964
2053
2074
1979
2055
2032
2058
2176
2084
2090
2016
1943
2113
1995
1990
2134
2048
2090
2024
1995
2116
2132
2087
2021
2097
2066
1979
2029
1929
2019
2116
1998
2027
2050
1985
1958
2032
2105
1977
1966
2100
2105
2050
2053
2147
2037
1937
2071
2011
2092
2124
1898
1987
2037
2084
2090
1932
2037
2071
2016
2019
2032
2129
2027
1995
2150
2118
2118
2105
2050
2053
2032
2097
2011
1935
2040
2019
2016
2000
2011
2058
2058
2129
2063
2006
2066
2048
2132
2092
2027
2150
2076
1953
2037
2163
2097
1877
1948
2055
2000
1958
1982
2100
2100
2058
2113
2126
2071
1958
2076
2155
1995
2095
2155
2034
2071
2008
1974
2061
2003
1906
1977
2145
2037
1903
2016
2019
2006
1961
1987
2139
2145
2061
1982
2082
2134
2000
2092
2111
2082
2071
1966
2082
2097
2000
2040
2024
2189
2171
2006
2155
2087
1890
1895
2040
2168
2074
2111
2153
2042
1971
1927
2042
2055
1950
2011
2000
2000
1974
1979
2134
2055
2006
2079
2074
2111
2055
2084
2129
2166
2139
2003
2103
2079
1935
2079
2118
2108
1953
1827
2013
1945
1922
2132
2129
2092
2008
2006
2142
2137
1979
1977
2187
2129
1929
2024
2058
1953
1914
2061
2202
2092
2058
2011
1974
2061
1882
1985
2160
1964
2069
2132
2000
2021
1971
2013
2132
2184
2074
2034
2171
2003
1932
2082
2150
2166
2006
2095
2197
2042
2034
2050
2113
2066
1950
2029
2013
2013
1945
1856
1990
2066
2074
2095
2061
2003
1859
1908
2118
2105
2000
1992
2108
2084
1990
2111
2158
2147
2090
2103
2223
2069
1992
2011
2019
2205
2142
1990
1916
1995
2082
1901
2063
2189
2011
2021
1969
2027
2027
1914
2092
2103
2027
2097
2087
2061
1906
1937
2147
2076
2103
2239
2258
2139
1950
1982
2066
2145
2150
2011
1966
1937
1908
1916
2040
2200
2055
1969
1961
1948
2069
1953
1974
2071
1890
1992
2142
2137
2045
1992
2139
2084
1958
2087
2231
2197
1956
1998
2137
2016
2042
2053
2061
2103
1940
1966
2079
2058
2076
1956
1872
1943
2024
2087
2090
2129
2042
2058
2176
2129
2108
1971
2006
2061
1940
2163
2137
1979
2055
2045
2171
2118
1974
2029
1948
1964
2000
2090
2166
2011
2034
2053
2045
2160
2116
2055
1969
1966
1992
1908
2076
2174
2058
1927
1906
2150
2058
2021
2189
2082
2090
1995
2006
2108
1901
2021
2160
2066
2019
2061
2100
1964
2037
2168
2032
2034
2055
2069
2032
1929
2074
2087
2029
2137
2053
2021
2040
1987
2034
2084
2124
2048
1995
2087
2092
2111
1945
1929
2139
2024
2053
2139
2055
2058
1992
2013
2024
2076
2108
1961
1964
1919
1940
2063
2024
2181
2158
1961
2000
2000
2034
2111
2174
2116
1922
2063
2061
1977
2084
2006
2100
2105
1956
2024
1969
2040
2103
2118
2265
2184
2166
2129
2021
2103
2040
1950
1935
2045
2016
1901
2090
2058
2003
2121
2045
2079
1961
1937
2097
1977
1958
2008
2097
2213
2071
2092
2045
1885
1987
2058
2121
2108
1969
1956
1958
2058
2118
2174
2105
1927
2079
2016
1840
2032
2024
2058
2100
2042
2142
2095
2003
2006
2027
2079
2055
2074
2024
1995
2011
1971
2034
2090
2189
2315
2097
2087
2181
1990
1956
2019
2066
2066
1958
2006
2003
2105
2055
1945
2187
2063
1851
2000
1990
1969
1932
1992
2111
2150
2121
2016
2108
2124
1985
2087
2111
2082
1977
1961
2071
2034
2100
2103
2013
2134
2100
2092
2076
2000
2021
1916
1979
2150
2048
2124
2084
1969
2042
2066
2129
2126
2084
2027
1964
1971
1830
1950
2118
2048
2071
2061
2087
2137
2074
2042
2019
2139
2040
1911
2082
2113
2003
1948
1948
2024
2024
2097
2058
2000
2142
2132
2058
2082
2063
2155
2003
1966
2142
2103
2082
2027
2063
2100
1950
2079
2087
1948
2003
2055
1971
1901
2032
2108
2066
2160
2045
1985
2027
1956
1998
2021
2050
2063
1990
2090
2058
2103
2153
2048
2126
2063
2019
2103
1943
1985
2092
2121
2087
1985
2069
2082
2011
2032
2027
2095
1977
2013
2132
1974
2019
2074
1969
2074
2118
2118
2024
1969
1990
2013
2124
2105
2095
2166
2063
2082
2097
2045
1958
2045
2197
1987
1971
2116
1987
1961
1898
2048
2132
1906
1953
2013
2055
2160
2011
2074
2066
1977
2084
2079
2034
2029
1950
1966
2008
2063
2074
2171
2163
2048
2055
2019
2048
2063
1969
2147
2171
2076
2021
2027
2139
2055
2011
2037
1903
2024
2027
1992
2150
2124
2042
2082
2113
2027
1966
2202
2053
1803
2013
2113
2021
1966
2013
2134
2011
1924
1992
2205
2205
1919
1971
2116
2061
2069
2037
2108
2116
1992
1974
2029
2200
2142
1895
2082
2155
2000
1937
2053
2155
2029
2024
2095
2032
2003
1966
2108
2124
1979
1985
2034
2076
2006
1985
2181
2074
2024
2066
2034
2066
1908
1935
2145
2155
2166
2050
2024
2061
2021
1966
1974
2061
1958
1914
2134
2105
2079
2016
1990
2145
2118
2118
2171
2063
1932
1906
2071
2050
2040
2071
2084
2160
1998
1948
2176
2105
2034
2011
2082
2208
2011
1893
2027
2084
2019
1864
1990
2053
1901
1922
2016
2116
2058
1974
2066
2021
2029
2029
2058
2166
2097
2082
2213
2189
2053
1995
2113
2090
2042
2050
2008
2021
2003
1961
2113
2116
2132
2137
2055
2076
1929
1937
2066
1998
2071
2032
2121
2171
1903
1887
1995
1992
1966
1964
2142
2087
1864
1872
2134
2244
2095
2142
2179
2027
2040
1971
2063
2124
2045
2090
2019
1979
1882
1801
2126
2168
2137
2134
1971
2092
2006
1851
2095
2134
2063
1977
2158
2305
2008
1964
2058
2087
2187
2079
2013
1987
2000
1977
1971
2048
2087
2171
2132
2071
2116
1971
1922
1940
2032
2113
2029
2095
1998
1796
2027
2074
2042
2013
2105
2339
2061
1935
2108
1987
2069
2058
2045
2116
1977
2008
2092
2116
2189
2129
2050
1903
1911
2019
1953
1945
1987
2027
2111
2071
2097
2058
1998
2071
2097
2071
2134
2229
2074
1911
2087
2053
2055
2108
1953
1961
1956
1924
1990
2008
2155
2082
2063
2118
1943
2111
2134
1911
2071
2074
2076
2066
2029
2063
2040
2105
2071
2034
2103
2074
2074
1966
2027
2132
2048
2008
1937
1971
1995
1937
2124
2153
2090
2045
1982
2061
2024
2019
2103
1992
2063
2069
2100
2200
2037
1998
1982
2071
2197
1919
2006
2118
1982
1995
2079
2171
2097
2040
2113
2103
2087
1992
1977
1895
1893
2103
2066
1966
2008
2103
2129
1908
2037
2145
1977
2134
2145
2003
2129
2037
1982
1971
1995
2171
2069
1982
2048
2087
2124
1914
2008
2163
2045
2082
2126
2092
2069
2000
2045
1982
1995
2168
2153
2048
2105
2071
1903
1911
2027
2048
2045
1966
2011
2021
1950
2040
2069
2027
2034
1937
2134
2142
1987
2134
2079
2045
2166
2087
2100
2097
2150
2087
1969
2090
1977
1908
2066
1969
2034
2074
1995
1977
2027
2055
1956
2032
2121
2126
2160
2019
2040
1982
1935
2058
2027
2111
2100
1982
2111
2045
2100
2118
2013
2158
2132
2042
2040
1974
2063
1992
1992
2158
2137
2063
2034
2034
2034
2000
2061
2040
2045
2029
1985
2045
2019
1987
2024
2037
2034
1979
2019
1979
2066
2145
2076
2181
2092
1948
2092
1971
2100
2210
1922
1924
2024
2034
2045
2095
2163
2042
2103
2084
2013
2095
2021
1998
2024
1992
2061
1995
1945
2019
2124
2100
1992
2066
2166
2105
2103
2118
2079
1948
1908
1977
1966
2029
2105
2087
2137
2090
2058
2003
1985
2058
2034
2063
2053
1929
2000
2008
2013
2050
2061
2139
2084
2058
2116
2042
2040
2029
2066
2087
2029
2084
2118
2095
2074
1964
2040
2084
2050
2087
2027
2027
1964
1824
1953
2019
2063
2024
2074
2237
2113
2103
2160
1998
1961
1982
2111
2042
1982
2132
2034
2003
2100
2092
2100
2050
2116
2082
2034
2074
2034
2013
1922
2045
2208
1966
1971
2090
2016
2032
2066
2087
2045
2034
2076
1885
1885
2076
2118
2053
2037
2111
2045
1935
2066
2076
2103
2037
1856
1932
2032
2097
2053
2019
2158
2176
2189
2037
2058
2153
1969
2079
2171
2058
2082
2061
2126
1971
1922
2129
2000
1977
2105
2097
2079
1908
1940
1969
1945
2066
2024
2008
2100
2055
1995
2016
2100
2121
2147
2090
2053
2142
2006
1958
2139
1992
1971
2126
2150
2092
1982
2079
2082
2000
2045
2032
2168
2129
2045
2092
1969
1950
1916
1895
2063
2040
1987
1948
1945
2024
2024
2016
2082
2121
2111
2097
2187
2116
1953
2021
2134
2063
1979
2029
2142
2042
1985
2090
2139
1992
1908
2134
2111
1950
2029
1992
2090
2050
1958
2129
2027
1982
2142
2126
2163
2027
1914
2019
2079
2132
2027
2037
2200
1974
1898
2105
2090
1992
2003
2061
2166
2063
1898
2042
2082
1966
2134
2132
2024
2032
1943
2040
2105
2032
2139
2071
2090
2055
1961
2166
2139
2071
2100
1987
2045
1979
1985
2166
2061
1961
1992
1916
1935
2037
2084
2024
1935
1974
2126
2189
2121
2032
2034
2029
2037
2087
2055
1985
2032
2006
1940
2139
2250
2071
2048
2066
2139
2082
1882
1903
1966
2084
2092
1969
2142
2050
1974
2145
2097
2197
2176
2000
2055
1945
1935
2050
2090
2092
1992
2016
2048
1935
1990
2053
2063
2069
2129
2168
2171
2195
2087
2087
2082
1990
2095
1890
1856
2053
1995
2082
2097
2013
2013
2053
2158
1893
1817
1964
1848
1977
2079
2066
2174
2032
2011
2150
2150
2050
1979
2048
2082
2121
2158
2006
2021
2071
2092
2139
2082
2029
1924
1932
2134
2139
2163
2174
2132
2024
1950
2063
2011
1953
2003
1940
1990
2000
2074
2129
2019
2100
2134
1964
1985
2118
2205
2103
1943
1974
2137
2134
1969
2016
2087
1927
1969
2058
2084
2153
2058
1919
2013
2153
2074
1961
2118
2097
1974
2027
1977
1937
1940
2042
2168
1987
1987
2058
2071
2124
2061
2181
2226
2050
2032
2024
2069
2006
2000
2074
1992
2029
2013
1908
2063
2066
2076
2079
2042
2145
2084
2053
2087
2003
2048
2034
2034
1961
1956
2129
2118
2097
2155
2100
2103
1977
1948
2082
2108
1995
1935
2040
2016
2021
2134
2048
2129
2100
1974
2006
2016
2105
2042
1916
2024
2029
2069
2045
2013
2013
1990
2147
2155
2040
2116
2027
2048
2029
1971
2163
2029
1872
2037
2100
2158
2048
2034
2076
2000
2066
2111
2058
2016
2016
2061
1953
2063
2126
1992
2003
2027
1987
2029
2118
2147
2034
2100
2090
2040
2042
1971
2142
2082
1793
2069
2142
1992
2050
2076
2181
2066
1990
2176
1953
1906
2053
2006
2019
2097
2071
1914
1948
2100
2076
2071
2027
2027
1966
1953
2124
2176
2111
2082
2074
2171
2124
2121
2118
2050
2084
2053
2074
2105
1964
1995
1919
1958
2111
1995
1987
1974
1966
2095
1969
1995
2074
2082
2108
2006
2021
2087
2050
2042
2071
2126
1995
2011
2087
2034
2082
2061
2034
2105
2097
2142
2097
2092
2082
2105
2174
2113
2019
1859
1880
2069
1924
1974
2053
1908
2003
2008
1964
2147
2103
2058
2029
2016
2048
1992
2011
2027
2074
2166
2087
2124
2097
2074
2061
2032
2097
2069
2092
2090
1964
2053
2013
2045
2079
1974
2071
2124
2092
2042
1974
2155
2084
1998
2105
2071
2040
1880
1856
2097
1985
1966
2069
2116
2118
2019
2021
2032
1990
1998
2013
2087
2006
2019
2087
2071
2142
2121
2103
2160
1998
1929
2027
2074
2021
2055
2184
2181
2069
2037
2019
2105
2055
1990
2021
1985
2011
2045
1982
1995
2063
2145
2061
2034
2108
2050
2024
2045
2037
2116
2071
2071
2016
1911
1974
2037
2006
1961
2032
2108
2019
2079
2066
2111
2168
2034
1985
2029
2074
2079
1945
1964
2024
1990
1966
2071
2168
2032
2029
2205
2069
2069
2082
2027
2074
1940
1901
2034
2108
2090
1971
2163
2210
2071
2069
2019
2029
2021
1906
2032
2129
2092
1977
1971
2050
2021
2118
2179
2103
2095
2034
2111
2069
2050
2153
1992
2003
2019
1838
1998
1987
1903
1985
2087
2118
1971
2071
2116
1945
2008
1937
2058
2213
2103
2121
2113
2116
2111
2053
2218
2137
1998
1950
1943
2048
2016
2050
2055
1985
2045
1974
2027
2048
2011
2011
1964
2097
2118
2053
2087
2003
2053
1956
1977
2265
2105
2034
2097
2008
2092
1914
2058
2284
1998
1998
2048
1982
2071
2037
2053
2066
2029
1895
1908
2053
2013
2021
2027
2024
2132
2016
2016
2066
2013
2019
2032
2139
2108
2008
2118
2124
2192
2121
1990
2176
2155
2024
2034
2055
2142
1943
1935
2087
1966
2003
2003
2037
2168
1950
1964
2079
2003
1998
2074
2097
1922
1901
2008
2040
2142
2021
2042
2195
2108
2048
2055
2202
2195
1935
1992
2000
2040
2058
1966
2113
2074
1956
2066
2095
2095
2019
2100
2150
2095
2069
1887
1922
1995
1848
2045
2160
2095
1969
1856
2082
2100
1924
1961
2142
2315
2045
2013
2218
2074
2000
2045
2134
2166
1935
1945
2045
1969
1914
2029
2216
2168
2027
2034
2019
1998
1898
1987
2174
2082
1964
2021
2168
2132
1945
2034
2132
2187
2053
1948
2160
2053
1961
2142
2126
2082
1916
1898
2034
2061
2090
2003
1961
2040
1992
1998
2069
2137
2050
1898
1974
2105
2021
1992
1995
2095
2158
2045
2179
2216
1990
2019
2074
2006
2048
2150
2048
2008
2045
1932
1961
1990
2019
2200
2163
2137
2042
1985
2016
2000
2066
1971
2045
2139
1893
1971
2053
2013
2021
1974
2163
2216
2053
2034
2040
2100
2050
2079
2150
2111
2205
2058
1985
2097
1895
1979
2040
1950
1992
1914
2021
2027
1958
2045
2000
2124
2006
1919
2137
2105
2082
2000
2048
2205
2006
2074
2108
1998
2092
1985
1961
2097
2092
2040
2019
2055
2027
2108
2121
2042
2084
2019
2084
2221
2105
2029
2000
2050
2032
1935
2076
2137
2011
1890
1948
2226
2063
1893
2084
2048
1985
1958
2000
2129
2084
2074
2040
2079
2113
1937
1964
2048
1977
2055
2045
2040
2121
2069
2011
2011
2100
2090
1990
2095
2092
2006
2032
2111
2076
1995
2090
2042
1935
2053
2021
2084
2113
1953
2105
2137
2045
2090
2016
2121
2100
1943
1995
2139
2153
1940
1943
2139
2153
2040
1932
2045
2079
1866
1956
2187
2111
1940
1964
2019
1880
1969
2150
2174
2166
2003
2082
2174
2037
2066
1998
2034
2092
1961
2069
2129
2174
2045
1877
2147
2111
2008
1987
1901
2061
2016
1974
2100
2000
1966
2069
2058
1940
1987
2082
2042
2087
2076
2061
2121
2029
2103
2095
2027
2118
1958
1932
2084
2142
2116
1916
2129
2294
2071
2095
2021
2034
2066
1927
2087
2011
1822
1948
1969
2048
2132
2074
2037
2040
2113
2145
2129
2048
2000
2069
2016
2024
2063
1979
1982
1961
2074
2137
2008
2087
2074
1987
2063
2066
2090
2063
2082
2113
1966
1924
1911
2029
2116
2013
2147
2137
1979
1977
2024
2063
1953
2011
2126
1979
2045
2100
2034
2076
2108
2176
2145
2095
2071
2013
2037
1990
2029
2055
1990
2037
1922
1995
2095
1979
2074
2006
2055
2181
1977
2029
2092
1982
1943
1971
2187
2124
2003
2111
2111
2150
2071
2016
2074
1998
2040
1974
1969
2063
1974
2061
2121
2111
2111
2011
2008
2013
1995
1935
1985
2139
2040
2019
2095
2006
1985
1995
2124
2155
2034
2048
1953
2037
2176
2021
2092
2084
2006
2074
1948
1979
2103
2021
1898
1974
2181
2092
2069
2202
2108
2042
2008
2013
2134
2153
1995
1977
2092
1966
1927
2137
2087
1990
2019
2032
2124
2079
1969
2003
2061
2003
1961
2132
2184
2058
2071
2034
1992
2100
2061
2042
2024
1885
1916
1966
2008
2066
2045
2024
2011
2050
2082
2231
2210
1987
2111
2037
2011
2187
1998
2045
2150
1971
2027
2069
2013
1971
1987
2124
2145
2066
1990
2048
2105
1966
2050
2174
2055
1924
1911
2126
2116
1958
2011
1964
2008
2008
2000
2129
2092
2150
2034
1932
2155
2029
1998
2097
2029
2027
1911
1992
2082
2037
2129
2137
2137
2045
2027
2195
2050
1953
2037
2037
2011
1916
2032
2087
1924
1995
1964
1914
2134
2158
2050
2113
2058
1956
2071
2034
1995
2147
1948
1998
2271
2024
2082
2223
2032
2029
2042
2121
2069
1887
1966
2069
2103
2016
2037
2153
2095
2050
1992
1901
2034
2097
2016
2079
2150
2113
1950
1969
2176
2126
1966
1932
2008
1998
2037
2137
2108
2079
1953
2021
2108
1893
2034
2050
1859
2069
2082
2019
2055
1982
2003
2013
2142
2147
1956
2071
2029
2027
2195
2071
2166
2139
1987
2166
2150
2082
2103
2071
2066
2034
2095
2087
1990
1953
1908
1961
1985
2053
2108
2000
1985
1953
1977
1929
1956
2095
1935
2103
2168
1969
2158
2069
2013
2113
2040
2179
2121
1974
1979
1953
2108
2042
1958
2105
2074
2000
1987
2113
2137
2008
2027
2055
2160
2134
1987
2132
2103
1864
1911
2145
2137
1932
2037
2142
2074
2042
1956
2097
2095
1940
2118
2129
2082
2105
1985
2021
2048
2069
2063
1945
2053
2021
1943
2079
1979
1985
2095
2095
2147
2076
2050
2074
2000
1932
1929
2084
2037
1953
2082
2116
2145
2087
2097
2163
2095
2016
1887
2019
2171
2032
2071
2100
2105
2021
1916
2150
2124
1950
2053
2037
2006
1882
1851
2116
2071
2082
2142
1969
1977
1948
1948
2113
2174
2150
2058
2100
2139
2095
2029
1927
2034
2105
2069
2034
1998
2066
1979
2006
2113
2013
2055
1953
1903
1995
2006
2187
2053
1982
2150
1990
2032
2058
2027
2221
2111
1940
1982
2095
2097
1948
2045
2113
2034
2071
2053
2153
2116
1948
1971
2034
2113
2042
2053
2163
1948
1872
1966
2063
2121
2103
2155
2079
2032
2003
1982
2179
2116
2011
2074
1966
2045
2079
1961
2008
2029
2076
2074
2084
2100
1998
2034
2013
1964
2058
2053
2050
1969
1914
2066
2071
2027
1974
2006
2155
2040
1987
2074
2116
2111
2006
2108
2179
2069
2071
2100
2150
2142
2058
1974
1932
1992
1927
1987
2045
1874
1992
2103
2105
2229
2121
2013
2074
2074
2090
1977
1971
2021
1956
2097
2184
2145
2074
1979
2003
1995
2116
2097
1987
2058
1966
2021
2066
1990
2145
2034
1974
2061
1906
1948
2034
2040
2145
2103
2053
2087
2074
1995
1995
2121
2082
2055
2084
2037
2111
2066
2045
2100
2079
2071
1992
2045
2063
1956
1998
1995
2048
2137
2163
2126
1958
1966
1995
1940
2090
2097
2053
2008
1929
2042
2024
2061
2179
2053
2105
2111
1958
1956
1922
1914
2011
2040
2103
2181
2074
1929
1998
2063
2137
2145
2111
2181
2013
1901
2027
1971
2084
2150
2097
2226
2079
1971
2037
2016
2113
2045
2111
2092
1764
1874
1995
1943
2079
2126
2129
2166
2084
1932
1990
2082
2042
2108
2082
1979
2019
2016
2037
2095
2158
2166
2045
2021
2042
1932
1916
1919
2019
2153
2061
2032
1971
1950
2061
2061
2237
2223
2126
2166
1987
2055
2097
1990
2171
2118
2055
2145
1974
1943
2055
2037
2074
2134
2055
1985
1943
1782
1814
2032
2045
1966
2029
2084
1919
1885
2074
2092
2158
2147
2063
2158
2040
1950
2037
2042
2174
2087
2029
2192
2066
2063
2066
2003
2108
2016
1987
2027
2055
2029
1953
2092
2048
2013
2129
2000
1992
2066
2027
2032
1998
2019
2155
2171
2061
2050
2111
1977
2011
2126
2066
2111
1990
1893
2029
2019
2111
2124
2024
2116
2082
2076
2074
1977
2074
2111
2027
1979
2013
2011
1935
1990
2021
2058
2163
2076
2019
2092
2066
1940
1964
2069
2076
2163
2155
2032
2058
2029
2084
2181
2021
1945
2013
2034
2037
1995
2142
2150
1932
1966
2032
2013
2000
1992
2061
2032
2037
2147
2113
1937
1995
2147
2029
2029
2108
2090
2071
1924
1982
2126
2076
2160
2092
1979
2050
1995
2048
2027
1985
2103
2042
2032
2050
2006
2019
2029
2076
2006
2069
2321
2139
1893
1945
2016
1987
1880
2108
2255
2032
1937
1935
2076
2171
2129
2095
1992
1924
1927
2040
2111
2055
2108
2040
1971
2097
2092
2150
2092
1992
1987
1929
2129
2095
1838
2055
2108
2027
2058
2027
2184
2174
2019
1969
2063
2137
1945
2024
2134
2048
2048
1943
2011
2139
2050
2019
2029
2092
2034
1995
2160
2050
1982
2116
2163
2176
2021
1966
2019
2027
1895
1827
2116
2011
1817
2092
2090
2029
2034
1995
2150
2200
2189
2166
2121
2124
1919
1953
2103
1958
1985
2040
2037
2074
1948
2024
2208
2192
2019
2027
2286
2105
1895
2019
2082
1961
1785
1969
2145
2103
2069
2003
2160
2129
1908
2076
2137
2027
1966
1977
2116
2021
1929
2029
2021
2045
1971
2040
2226
2079
2032
2003
1945
2024
1985
2108
2210
2100
1958
1971
2090
2027
2016
2103
2137
2076
1908
2113
2192
1929
1979
2113
2223
2192
1969
2087
2082
1940
1995
2003
2105
2082
1956
1995
2008
2118
2097
2055
2090
2003
1958
1932
2027
2142
2103
2084
1987
1990
1987
1974
2134
2034
1898
1982
2105
2187
2016
2069
2163
1985
1940
2016
2118
2053
1890
2008
2134
2108
2055
2160
2155
1953
2016
2129
2019
2061
1982
1969
2113
2055
2053
2050
2034
2034
2011
2155
2150
2108
2058
1937
2069
2100
2063
2074
1998
2058
2013
2034
2139
2013
2053
2076
2016
2000
1914
1964
1966
2034
2074
2003
2142
2045
1906
2061
2027
2019
2016
1971
2092
2063
2021
2103
2153
2103
2027
2129
2006
1992
2118
2006
2121
2132
2118
2229
2024
2032
2061
2037
2084
1974
1998
1992
2021
2108
2008
2066
2084
2003
1911
2000
2255
2063
1945
2045
1950
2032
1985
1932
2034
2003
2053
2032
2027
2113
2069
2181
2111
2069
2166
2000
2019
1995
1898
2074
2095
2118
2079
2045
2116
2050
2066
2090
2134
2145
1940
2008
2048
2006
2090
1992
1950
1987
2040
2155
2050
2019
2042
2037
2013
1948
2116
2126
2003
2050
1987
2095
2095
2029
2158
2058
2013
2000
1927
1990
1990
2084
2071
2045
2139
2100
2137
2076
1974
2058
1990
1985
2006
2003
2037
1982
2042
2129
2121
2113
2027
2066
2079
2045
2087
2082
2103
2024
1950
2116
2097
2063
2095
2061
2048
2013
1987
1943
1990
2008
1922
2053
2042
1971
2100
2045
2061
2242
2195
2139
2082
2008
1958
1924
2000
2027
2071
2105
1992
1966
1977
2111
2174
2095
2084
2021
2032
2016
1943
2074
2134
2124
1982
2024
2247
2006
1877
2013
2034
2105
1940
1987
2058
1908
2003
2050
2105
2132
2050
2174
2074
2016
2050
2050
2100
1990
2050
2069
1919
2024
2019
2050
2179
2116
2040
1992
2045
2055
1919
1987
2087
2113
2092
2074
2134
2124
2124
2074
2069
2160
1982
2006
2050
1882
1950
1987
1977
2024
2097
2221
1998
1966
2097
1995
2066
2032
2027
2179
2076
2006
2027
1992
1969
2042
2097
2111
2200
2153
2024
2029
1982
2042
2118
2071
2066
1995
2021
2024
1887
2045
2121
2092
2042
2008
2113
2034
1995
2042
2040
2142
1950
1919
2082
2050
2166
2124
1982
2048
1982
2027
2071
2113
2095
1950
2042
2087
2037
2066
2003
2029
2000
2032
2021
1935
2006
1964
1969
2055
2037
2210
2187
2226
2271
2024
1956
1956
2000
2076
2021
2168
2034
1911
2029
1950
2050
2050
1958
2121
2027
2008
2042
1979
2024
2108
2137
2029
2006
2063
2011
1985
1982
2079
2050
2055
2145
2082
2100
2090
2029
2147
2063
2058
2132
1990
1979
2003
2076
2063
1838
2021
2071
2034
2142
2053
2142
2103
1971
2079
1961
1979
2037
1943
2003
2076
2069
2034
2058
2134
2074
2084
2055
2058
2084
2058
2087
2048
2037
2016
1985
2095
2032
2111
2184
2032
2045
1998
1985
2137
2071
2045
1992
1908
1922
1950
2100
2090
2053
2166
2100
2071
1979
2011
2082
1971
2103
2200
2137
2066
1969
2055
2029
2040
2000
1911
2053
1998
1927
2042
2006
2061
2034
2087
2103
1956
2069
2050
2006
2171
2032
2103
2179
1958
2016
2205
2179
2016
2050
2163
2011
1998
1998
2092
2118
1832
1861
2045
1969
1937
1982
2082
1995
2019
2153
2082
2100
2040
1969
2132
2063
2113
2129
2129
2294
2116
1971
2103
1995
1937
2008
2137
2153
2019
1990
1995
1985
2008
2011
2027
2019
2137
2024
1856
1937
1992
2027
2006
2076
2150
1948
2055
2097
1995
2103
2129
2147
2090
2090
2205
1992
1882
1901
2069
2179
1940
2053
2197
1943
1982
2053
2108
2145
2016
1940
1969
2079
1979
1906
2208
2208
2006
1998
2145
2155
1990
2013
2150
2150
1979
1898
2171
2037
1895
2129
2092
2090
2019
2000
2202
2000
2011
2037
1887
2058
2053
2008
2095
1979
1995
1916
1985
2181
2097
2034
2082
2100
2042
1995
2118
2076
2019
2040
2055
2034
1932
1971
2139
2105
1982
1998
2197
2042
1943
2066
2063
2160
2053
1945
2192
2042
1937
2053
2155
2292
2092
1982
2103
2008
2029
2029
2087
2158
1979
1914
2034
2016
1890
1911
2100
2040
1911
1982
2074
2008
1971
2037
2027
2069
2071
1969
2171
2087
1919
2024
2027
2189
2205
2058
2226
2103
1982
2008
2050
2160
2000
2045
2210
2042
2042
2006
2048
2050
1874
2045
2142
1901
1943
2053
1985
2013
2103
2042
2079
2087
2000
2090
2090
2082
2168
2027
2092
2050
1985
2079
2000
2095
2076
1885
2008
1964
2003
2061
2079
2179
1937
1880
2095
1998
2071
2076
2058
2213
2163
2063
2074
2058
1992
1969
2095
2103
2092
2040
1961
1979
2000
2087
2105
1987
2097
2048
2000
2090
2024
2058
2100
2053
2050
2006
2053
2048
2087
2045
1971
2032
1977
1990
2066
2037
2124
2053
2053
2090
2055
2116
2045
2076
2116
1940
2032
2013
1945
2058
2037
2071
2037
1950
2042
2050
2111
2042
2024
2032
1958
2097
2084
2040
2095
1992
2006
2008
2134
2132
2034
2263
2163
1979
2076
1971
1964
1956
1985
2079
2050
2016
1982
2055
2071
2048
2103
1924
2032
2147
2013
2058
2027
2019
2066
2040
2192
2079
1958
2032
1992
2053
2079
2176
2244
2040
2100
2048
1911
1937
1848
1922
2032
2079
2045
1927
2071
2132
2124
2118
2105
2097
1929
1977
2097
2037
2100
2079
2116
2090
1887
2061
2168
1971
1998
2116
2181
1940
1906
2082
2008
2082
2006
1974
2226
2074
1914
2024
2071
2000
2079
2192
2105
2053
1979
1950
2066
2024
2181
2239
2000
1971
2008
2095
2071
1924
2105
2100
1958
1969
2032
2092
2000
1969
1940
1895
2142
2100
1995
2121
2037
2013
2034
2082
2292
2195
2032
1998
2045
2095
2034
2074
2042
1964
2034
1990
2003
1982
2000
2103
2113
2076
2000
2045
2048
1987
2118
2100
2129
2061
1845
2063
2160
1966
2037
2137
2181
2034
1945
2032
1992
2055
2027
1985
2134
1919
1893
2095
2063
2108
2108
2061
2132
2074
1943
1935
2097
2032
1924
2076
2210
2116
1856
2037
2284
2003
2024
2176
2145
2040
1882
2082
2147
1987
2050
1979
2037
2021
1977
2134
1971
1943
2061
1964
2079
2084
2013
2071
2063
2037
1998
2092
2174
2019
1908
2000
2163
1995
1924
2116
2111
2053
1985
2139
2286
2071
2058
2032
2063
2166
2042
2058
2019
1945
2021
1964
2111
2074
1872
1982
1995
2024
2069
2029
2218
2095
1924
2105
2100
1979
2003
2145
2192
1966
1919
2061
2071
2032
2192
2166
1974
2061
2029
1998
2090
1985
2053
1974
1929
2147
2045
1979
2095
2108
2105
2071
2197
2076
1872
2003
2032
2000
2034
2053
2082
1953
1982
2076
1987
2016
2055
1990
2019
2132
2168
2019
2027
2055
2013
2053
2032
2103
2079
1969
2097
2055
1979
1995
2108
2053
1851
2050
2100
1924
2013
2079
2252
2258
2103
2126
2105
2076
2013
1901
2021
2045
2000
1961
1992
2050
2011
2006
2013
2058
2084
2034
2155
2071
2024
2179
2076
1992
2000
1992
2063
1953
2034
2150
2079
2113
2003
1987
2103
2040
2121
1961
1859
2016
1992
2048
2176
2145
2113
2034
2027
2042
2079
2048
2061
2108
2034
2126
2155
1922
2013
2053
2021
2132
2069
1998
2040
2055
2021
2061
2097
1914
2016
2021
1887
2116
2055
1948
2024
1958
2134
2129
2092
2158
2000
2053
2090
1995
2113
2118
2100
2037
1979
2019
1950
1950
2055
2079
2155
2147
2066
2058
2034
2000
2124
2090
1987
2163
2084
1819
2008
2008
1924
1971
2034
2176
2055
1961
2108
2050
2069
2100
2116
2168
2050
1995
1979
1948
2032
2021
2074
2063
2016
1985
1853
2011
2155
2027
2113
2192
2048
1961
2040
2092
2105
2042
1998
2095
2024
1916
2168
2189
2063
2090
2129
2134
2006
2021
2084
1950
2084
2079
2042
2166
1998
1919
1987
1945
1974
1956
2108
2100
1916
2034
2034
2053
2237
2084
2058
2166
1929
1851
2118
2118
2074
2142
1990
1979
2095
1950
1985
2076
2100
2079
2100
2192
1979
1953
2105
1956
2048
2124
2150
2095
1759
1838
2082
2053
2121
2147
2176
2019
1827
1958
2174
2244
2108
2021
2108
2071
2048
2034
2111
2113
1950
2000
2166
2176
2061
1990
2082
2027
2008
1948
1940
2034
1824
1908
2103
1982
2100
2013
1992
2105
1982
2076
2126
2053
2084
2000
2042
2032
2040
2158
2087
2016
1992
2037
2121
2021
2050
2100
2121
2142
2029
2042
2048
1971
1966
1948
2092
2076
2003
2121
2097
2116
2105
1979
2048
2034
2097
2105
1922
1987
2100
2074
2082
2108
2061
1950
2013
2016
2006
2045
1964
1979
2034
2103
2218
2074
1945
1977
2042
2145
2095
2126
2124
1908
2027
2074
2003
2084
2113
2050
1911
1982
2132
2024
1977
1969
2074
2040
1885
2029
2137
2108
2074
1998
2061
2103
2184
2168
2029
2053
2034
2032
2040
2029
2166
2061
1969
2006
2024
2058
2013
1964
1940
2079
2163
1885
1943
2145
2066
2032
2003
2053
2082
1961
2103
2195
2126
2000
2024
2113
1958
1998
2097
1998
2000
2034
2134
2147
2126
2155
2069
2053
2021
1979
1977
1916
2118
2029
1908
2079
1956
1990
2053
2008
2121
2003
2084
2121
1943
1992
2021
2174
2197
1953
2124
2132
1958
2058
2139
2129
2016
1953
1979
1985
2061
1998
2019
2055
2058
2184
2192
2108
2061
2021
2003
2006
2147
2006
1977
2139
1992
1985
2066
2069
2181
1969
1880
2137
2066
1924
2027
2095
2071
1937
1982
2013
1979
2000
1956
2074
2187
2061
2069
2160
2132
2037
2066
2116
2092
2024
2019
2126
2097
1958
2029
2103
2171
2024
1945
2129
1932
1811
2000
2042
2105
1961
1901
2006
2032
2032
2019
2184
2229
1998
2071
2053
2013
2097
2037
2111
2187
2132
2063
1961
2042
2055
2092
2155
2045
2008
1958
1940
2021
2027
2108
2129
2145
1985
1969
2103
1924
1937
2029
2124
2273
1974
1995
2082
1793
1856
1977
2071
2234
2013
1990
2132
2074
2032
2108
2231
2210
2066
2058
2034
1964
1945
2003
2029
2103
2066
1929
2013
2008
1953
2137
2129
2118
2084
2011
2053
1956
1945
2034
2100
2166
1971
2040
2153
2024
2142
2097
2034
2181
1977
1987
2045
1932
2034
2034
2048
2118
2048
2095
2045
2006
1966
2034
2231
2079
1961
2097
2053
1861
1822
2045
2142
2184
2090
1982
2129
2124
2071
2134
2108
2118
2008
1901
1950
2071
2100
1985
2079
2195
1992
2061
2084
1922
1969
1985
2029
2042
1971
1992
1953
1992
1935
2037
2181
2000
2048
2145
1998
2071
2129
2100
2118
2195
2111
2027
2042
1885
1979
2153
1995
2097
2137
2079
2055
1927
2011
2048
2074
2092
1985
2124
2008
1877
2095
2163
2174
2160
1990
1971
2021
2037
1990
1977
2006
2008
2103
2061
2032
2147
2019
2011
2016
2092
2181
2040
2061
2013
1987
2118
2037
2034
2027
2037
1998
1937
2050
2032
2048
2087
2027
2116
2024
2011
2053
1916
1995
2082
2100
2126
2066
2071
2016
2090
2105
2027
2163
2121
2000
2076
2011
2108
2105
1940
2082
2087
1961
2053
2076
1979
1908
2084
2092
1956
2008
2053
2048
1903
1943
2181
2069
2032
2129
2118
2048
1979
2061
2082
2032
2132
2092
2037
2003
2042
2116
2048
2084
2042
1956
2040
1908
1985
2082
1964
2074
1992
1971
2134
2058
2063
2040
2079
2079
2037
2137
2053
2058
2084
2021
2058
2040
2092
2021
2058
2145
2048
2153
2126
1977
2040
2034
2184
2150
1948
1990
1937
1887
1916
2000
2129
1995
1985
1992
1998
2145
2071
2019
2045
2003
2082
2037
2013
2045
2097
2192
2153
2197
2155
1990
2082
2132
2024
1964
2087
2006
1890
2168
2166
2021
2021
1861
2034
2137
1961
1990
1992
1943
1927
2021
2113
1990
2034
2076
2066
2153
2090
2087
2124
2050
2042
2055
2153
2063
1932
2050
2079
2061
2024
2042
2116
1887
1885
2027
1937
2029
2074
2024
2082
2058
2105
2092
2092
2108
2100
2153
2079
2058
2048
1948
2032
2027
2016
2048
2082
2074
1935
2045
2158
2006
2061
2113
2108
1992
1914
1990
1953
2003
2037
2008
2153
2071
2050
2184
2069
1974
2048
2040
1977
2016
2055
1966
2040
2071
2042
2155
2142
2103
2074
1969
2034
2055
2092
2055
2053
2139
1974
1990
2105
2055
2087
2000
2029
1971
1943
2129
2045
2024
2124
2100
2134
2024
2027
2061
2013
2082
1987
1948
2053
2016
2032
2011
2053
2061
2082
2126
2027
2092
2087
1964
2087
2087
2069
2034
1901
1880
2013
2116
2055
1956
2000
1992
2095
2132
2029
2113
2142
2113
2032
1974
2202
2079
1937
2048
2053
2021
1966
2000
2084
2074
2121
2024
2079
2192
2105
2126
2063
1940
2061
2006
1966
2019
1966
2011
2134
2105
1964
1945
1998
1966
2024
2069
2187
2063
1856
2034
2108
2076
2129
2027
2103
2084
1987
2042
1977
2050
2095
1982
2168
2174
2037
2000
2045
2145
2071
1979
2055
2147
2021
1914
2092
2063
1985
2019
2124
2121
1987
2061
2061
2016
2184
2069
2029
2024
1927
2090
2050
2006
2129
1987
2053
2042
1998
1990
1932
2124
2053
1974
2216
2082
1943
1953
2063
2137
2066
2050
2037
2029
1992
1932
1990
1953
2063
2150
2132
2116
2032
2090
1985
1927
2189
2082
2071
2132
1935
2021
2087
1969
2029
2061
2200
2087
1985
2063
1885
1948
2069
2032
2158
2105
2063
2003
1971
1979
2000
2076
2066
2084
2145
2045
2034
2066
2058
2019
2150
2208
1956
1961
2071
1987
2029
1940
2097
2174
1914
1998
2048
1964
2066
2029
2071
2061
2006
2061
2071
2050
2063
2090
2124
2016
2021
2092
2050
2037
2074
2061
2071
2063
1906
1882
2150
2082
2016
2100
2071
2066
1961
1929
1964
2013
2184
2040
2050
2116
1943
2021
2042
2034
2187
2006
1998
2116
2071
2045
2037
2097
2003
1971
2234
2082
1927
2045
2126
2100
2013
2063
2145
2103
2032
2008
2092
1945
1961
2055
1971
2069
2045
2032
2090
1937
2029
1987
1943
2053
2021
2118
2082
2008
2153
2074
2090
2134
1977
1992
2100
2069
2053
2082
1998
1977
2139
1990
2084
2268
2016
2040
2076
1990
2050
1948
2027
2027
1990
2019
1966
2084
2042
1964
2055
2006
2113
2053
1992
2090
2055
2063
2042
2090
2200
2048
2090
2097
1950
2019
2037
2040
2071
2042
2076
2034
2092
2069
2029
2055
1985
1979
1990
2061
2124
1982
2024
2090
2134
2145
2006
2027
2061
1958
2024
2071
2079
1956
2003
2058
1927
2071
2118
2008
2053
1956
2061
2134
2029
2021
2071
2142
2147
2042
2082
2066
1966
1953
2074
2132
2071
2063
1979
1956
2124
2111
2124
2074
2027
2040
2000
2066
2013
2000
2079
1953
2050
2034
1995
2150
1995
1964
2095
2008
2132
2074
2024
2195
2087
1977
2053
2066
2058
2053
2016
1961
2116
2040
1866
1977
2013
1985
2027
2124
2158
1982
2029
2058
2050
2132
2021
2084
2126
1950
2021
2074
2118
2050
2063
2218
2055
2040
2100
1995
2016
1979
1961
1919
2008
2142
2040
2063
2113
1987
2034
2082
2132
2082
1982
2011
2016
2040
2034
2027
2082
2013
2050
2108
2132
2160
2145
2174
2053
1971
2097
1964
1887
1971
1966
2011
2037
2008
1998
2040
2150
2048
2076
2145
2011
1903
1901
2058
2097
2058
2205
2176
2163
2074
1966
2032
1982
1995
1977
1979
2050
1843
2016
2195
2066
2134
2071
2063
2153
2053
2019
2016
2066
1932
1958
2189
2055
2040
2124
2024
2121
2082
2000
2048
2087
2058
2016
2105
2087
2016
2042
1956
2053
2084
2016
2082
2058
2058
2027
1958
2008
1964
2074
2061
2003
2108
2013
2045
2111
1982
2113
2142
2048
2032
2082
2132
2032
2029
2061
2037
2095
2019
2082
2061
1964
2006
1992
2040
2016
2011
2184
2147
2155
2048
1958
2034
1958
2037
2092
2063
2150
1932
1948
2066
1982
2076
2090
2074
2063
1979
2021
1890
1971
2134
2082
2181
2053
1893
2066
2027
2019
2132
2187
2192
2037
1880
1956
2021
1901
1958
2095
2045
2155
2011
1953
2176
2074
2124
2237
2097
2097
1966
1974
2066
2048
2145
2087
2095
2090
1872
2037
2055
1898
2003
2092
2108
2034
2000
2040
2034
2092
2082
2132
2076
1990
2066
2027
2019
2063
2042
2076
2008
2069
2097
2019
2016
1903
1948
2032
2011
2074
1922
2016
2129
1982
2079
2105
2181
2226
1992
2095
2137
1985
1992
2061
2124
2097
2063
2040
1958
2011
2019
2108
2076
1995
2129
2076
2013
2021
2040
2158
1956
1961
2069
1916
1945
1969
2034
2103
2071
2163
1979
1979
2137
2079
2171
2126
2027
2084
1992
2071
2100
2058
2058
2006
2090
2124
2111
2087
1922
1943
1995
2066
2082
1995
1969
1945
2034
2087
2024
2066
2019
2071
2048
2082
2213
1924
1895
2129
2069
2171
2124
2066
2042
1958
2061
2032
2032
2116
2071
2197
2121
2048
2092
1950
1995
2048
1987
2013
1922
2011
2055
2061
2166
2090
2063
2071
2113
2126
2016
2006
1945
1979
1974
1979
2048
2008
2105
2108
2048
2205
2095
2082
2108
1964
2027
2006
1969
2042
1971
1953
1919
1998
2111
2129
2273
2271
2066
1966
2063
2192
2082
2061
2040
1961
1895
1851
2032
2090
1964
2040
2058
2118
2095
2008
2147
2074
1995
2095
2019
2034
1982
1992
2090
2084
2118
2006
2055
2181
2011
2048
2105
2092
2082
1964
2000
2066
2040
2008
1958
2063
1998
1906
2008
2103
2142
2040
2079
2155
2040
2042
1971
2055
2082
1887
1990
2053
1985
1990
2058
2252
2158
2053
2063
2003
2082
1982
1979
2155
1979
1935
2029
2045
2066
2048
2134
2197
2113
2003
2084
2200
2032
2006
2045
2029
2045
1906
2016
2192
2019
2016
2029
2074
2113
2024
2116
2097
2050
2058
1932
2024
1990
1914
2037
2024
2040
1977
1914
2103
2100
2037
2095
2137
2105
1974
1964
2160
2153
1924
1953
2134
2003
1961
2063
2066
2124
2079
2069
2139
2053
2071
2021
2034
2087
1958
2011
2013
1987
2040
1887
2037
2071
2008
2168
2095
2118
2079
2019
2284
2158
1903
1971
2092
2008
1927
2090
2074
2000
2066
2040
2179
2118
2003
2063
2071
2132
2003
1956
2029
1982
2132
2019
1964
2129
1958
1916
1995
2050
2087
1948
2150
2197
1969
2061
2097
2000
2024
2069
2053
2006
2100
2055
2042
2100
1987
2053
2134
1914
1861
2016
2058
2003
2090
2092
2142
2195
1924
2048
2305
2063
2050
2116
2179
2139
1782
1908
2118
2053
2087
1990
2055
2142
2032
1937
2021
2218
2055
1940
2105
2006
1893
1877
1982
2121
2090
2024
2063
2134
2045
1953
2037
1966
1958
2055
2168
2252
2008
1945
2042
1945
2097
2126
2129
2160
1932
1956
1971
1966
2150
2084
2166
2147
1956
2053
2037
2058
2134
1979
2045
2126
2066
1974
1935
2034
2021
2000
2118
2221
2129
1969
2076
2040
2029
2129
2006
2034
2074
1987
2011
2006
1974
1953
2124
2174
1945
2045
2124
1998
2071
2042
2137
2155
1977
1979
2042
2105
2045
2029
2113
2011
1945
1937
2006
1995
1935
2029
2042
2090
2079
2019
2187
2027
1943
2105
2124
2139
2024
2071
2174
2021
2095
2118
2079
2111
2024
2050
1969
1880
2003
1948
1990
2074
2092
2126
2019
2042
2069
2024
2079
2032
2092
2108
2053
2087
2032
2092
2108
2013
2006
2003
